"time,sec","ppg heart rate, bpm",wi1,wi2,wi3,wi4,"candidate heart rate, bpm",
10.16,81.299,1.1524,-1.525,2.8633,-1.7498,65.369,
10.16,81.299,0.81668,6.2691,-12.115,5.2401,81.573,
10.16,81.299,-7.0171,4.6061,-0.41602,2.9948,80.841,
10.16,81.299,-0.94508,3.9069,-0.17913,-2.8608,46.692,
11.16,80.383,1.7254,-1.1432,0.33583,-0.14653,64.453,
11.16,80.383,10.182,-5.783,-1.2322,-3.3081,55.664,
11.16,80.383,0.61182,2.8506,2.4118,-5.8327,46.234,
11.16,80.383,2.3253,-16.378,26.321,-12.356,80.841,
12.16,79.285,0.90518,-2.0857,3.6596,-1.7108,64.453,
12.16,79.285,-12.46,16.373,-12.417,8.6543,79.01,
12.16,79.285,13.162,0.95566,-16.975,3.1014,61.249,
12.16,79.285,-0.026076,4.9761,0.069548,-5.0596,131.56,
13.16,78.461,-1.1373,-1.4081,4.2608,-2.4798,63.171,
13.16,78.461,8.7808,-5.4024,-3.5302,-0.053703,57.404,
13.16,78.461,-3.082,-2.6044,-1.6578,7.2712,130.46,
13.16,78.461,12.294,-32.048,32.9,-12.909,79.285,
14.16,77.82,-0.62922,1.5887,-0.8543,0.69667,61.523,
14.16,77.82,8.2927,-5.9615,-2.4363,0.17918,58.685,
14.16,77.82,2.2845,3.5646,-1.4948,-4.3999,129.36,
14.16,77.82,9.8173,-25.534,32.732,-16.985,76.904,
15.16,77.728,-1.8749,3.5772,-2.3943,1.4761,90.729,
15.16,77.728,7.6222,-6.2142,-0.76242,-0.49548,126.89,
15.16,77.728,1.8164,3.4909,-1.5405,-3.8142,128.08,
15.16,77.728,9.4106,-25.82,33.737,-17.222,76.813,
16.16,77.82,-1.2216,2.8828,-1.5374,0.6583,60.699,
16.16,77.82,6.7304,-4.9048,-2.7237,1.043,126.25,
16.16,77.82,2.3864,3.0146,-1.3305,-4.1474,126.98,
16.16,77.82,-9.0991,26.032,-32.63,15.597,77.545,
17.16,77.728,-1.0542,1.7418,0.1006,-0.005106,61.066,
17.16,77.728,7.0382,-5.3478,-1.8048,0.26951,125.79,
17.16,77.728,-2.277,-2.9254,0.75572,4.5127,126.34,
17.16,77.728,-9.3322,25.287,-30.452,14.508,78.003,
18.16,77.82,-0.63323,1.3661,0.53343,-0.48518,61.89,
18.16,77.82,6.4883,-3.2643,-4.4534,1.3724,126.16,
18.16,77.82,2.771,0.95825,1.4247,-5.2651,126.34,
18.16,77.82,-9.1721,28.384,-32.082,12.872,78.186,
19.16,77.545,-1.2604,2.4169,-0.70977,0.34485,62.897,
19.16,77.545,6.7337,-4.2363,-3.0315,0.6877,126.53,
19.16,77.545,1.9349,2.8036,-0.63664,-4.1757,127.17,
19.16,77.545,-10.007,28.464,-34.377,15.896,77.728,
20.16,76.996,-0.87214,2.1441,-0.41709,-0.080982,64.362,
20.16,76.996,8.1199,-7.2511,-1.8804,1.1259,125.7,
20.16,76.996,4.1202,0.83233,1.2857,-6.313,128.91,
20.16,76.996,-13.264,37.005,-41.266,17.487,77.454,
21.16,76.172,-0.29293,-0.15487,1.099,0.15033,64.362,
21.16,76.172,10.438,-5.3377,-5.3138,0.26731,65.186,
21.16,76.172,2.4771,1.5926,3.0464,-7.101,131.01,
21.16,76.172,13.595,-38.634,41.76,-16.8,76.538,
22.16,75.806,0.16379,-1.8469,1.383,-0.50352,46.234,
22.16,75.806,-2.3532,-4.4318,1.1133,5.7367,130.92,
22.16,75.806,-7.2008,17.239,-21,10.935,75.531,
22.16,75.806,10.695,-7.1593,-4.5969,1.0639,63.904,
23.16,75.623,0.072498,1.8742,-0.32311,-0.85279,120.03,
23.16,75.623,-0.6757,7.2809,-5.1945,-1.6374,113.98,
23.16,75.623,-8.9245,4.1979,6.7348,-2.0491,77.271,
23.16,75.623,-17.648,26.126,-24.398,16.065,75.623,
24.16,75.806,1.6248,-0.53637,1.2142,-1.524,118.38,
24.16,75.806,-0.72147,5.5677,-1.3057,-3.7124,115.36,
24.16,75.806,25.703,-23.654,3.5959,-5.8578,76.721,
24.16,75.806,-0.5597,-10.328,22.05,-11.32,76.355,
25.16,76.538,-0.038727,1.4224,-0.17361,-0.42826,119.75,
25.16,76.538,-1.195,5.5991,-0.29541,-4.2465,115.91,
25.16,76.538,13.558,1.5362,-22.648,7.5493,76.996,
25.16,76.538,-20.39,21.166,-12.51,11.755,111.51,
26.16,77.179,0.45641,0.081854,1.0831,-0.8344,111.69,
26.16,77.179,-0.98775,5.0194,-0.13745,-3.9974,115.63,
26.16,77.179,-18.837,24.164,-19.926,14.756,77.545,
26.16,77.179,12.149,1.7078,-17.761,3.9952,76.721,
27.16,77.911,0.60653,1.1972,-0.76455,-0.25615,96.954,
27.16,77.911,2.3994,3.1308,-1.3798,-4.2938,115.17,
27.16,77.911,10.023,-4.2588,-8.4337,2.661,76.172,
27.16,77.911,-13.887,23.003,-21.42,12.315,77.82,
28.16,79.01,-0.33424,2.2779,-1.4846,0.32372,95.398,
28.16,79.01,-0.1029,5.0329,-0.7426,-4.3272,113.89,
28.16,79.01,18.342,-25.652,21.753,-14.401,78.827,
28.16,79.01,12.109,0.83114,-19.666,6.6859,76.08,
29.16,79.926,1.2853,1.547,-1.7515,-0.30474,93.109,
29.16,79.926,2.1683,4.7173,-2.9083,-4.1676,113.53,
29.16,79.926,11.475,-5.2582,-9.7233,3.4671,74.707,
29.16,79.926,-19.753,31.218,-29.278,17.84,79.468,
30.16,81.39,1.1086,-0.48213,0.9869,-0.81368,88.165,
30.16,81.39,1.8765,4.1552,-1.5851,-4.5203,114.17,
30.16,81.39,-17.738,25.113,-20.059,12.875,80.75,
30.16,81.39,8.4678,-2.1304,-9.8743,3.5539,73.425,
31.16,82.672,0.91977,-0.43061,1.0898,-0.80916,85.876,
31.16,82.672,2.0036,2.822,-2.0599,-2.8556,114.62,
31.16,82.672,-12.914,17.258,-16.714,12.587,81.665,
31.16,82.672,6.0591,-3.644,-5.0404,2.6514,54.199,
32.16,83.588,-2.3072,2.7815,-2.1964,0.93399,83.862,
32.16,83.588,6.0087,1.114,-4.6078,-2.6047,55.939,
32.16,83.588,0.69085,-2.7119,-6.5843,8.5274,118.56,
32.16,83.588,14.603,-30.365,32.537,-17.003,83.313,
33.16,84.229,0.61102,-0.34583,0.39683,0.13009,83.221,
33.16,84.229,5.4357,-1.471,-6.193,2.1811,54.749,
33.16,84.229,-2.2906,-3.6973,0.4579,5.5124,117.65,
33.16,84.229,-13.156,23.41,-27.591,17.409,83.862,
34.16,84.32,-2.3552,1.7841,-0.88748,0.69855,82.123,
34.16,84.32,6.6157,-1.5845,-5.9571,0.75208,56.122,
34.16,84.32,-0.41792,-6.3004,2.451,4.2239,117.65,
34.16,84.32,14.944,-24.038,31.661,-22.753,84.229,
35.16,84.137,2.7134,-2.1862,1.5816,-1.3572,80.658,
35.16,84.137,4.7891,1.2202,-8.0329,1.8428,76.904,
35.16,84.137,-14.236,26.733,-32.263,20.123,83.588,
35.16,84.137,-0.54024,-4.1195,0.37247,4.2917,117.65,
36.16,83.679,-2.9296,2.4941,-1.7911,1.4737,69.305,
36.16,83.679,6.2427,-4.0433,-4.4351,2.0523,59.692,
36.16,83.679,12.145,-22.674,28.935,-18.67,82.855,
36.16,83.679,-2.484,-5.2356,3.0085,4.7674,116.91,
37.16,83.13,1.7308,-2.4427,2.7939,-1.319,73.425,
37.16,83.13,-8.3551,21.476,-26.876,14.061,81.94,
37.16,83.13,-4.195,4.9495,3.3638,-4.057,69.763,
37.16,83.13,4.3708,2.2199,-2.6632,-3.9829,116.55,
38.16,82.581,2.5254,-2.1069,2.2223,-1.8807,73.883,
38.16,82.581,6.2792,-0.73826,-6.3637,0.6958,116.91,
38.16,82.581,12.776,-22.358,26.323,-17.041,81.757,
38.16,82.581,-0.65908,-5.7617,0.87537,5.5841,74.615,
39.16,81.665,-2.675,2.6218,-2.7914,2.0806,73.883,
39.16,81.665,12.81,-25.356,29.192,-16.952,81.94,
39.16,81.665,-2.8116,-4.9874,2.131,5.7486,75.897,
39.16,81.665,6.7804,-3.1384,-6.5938,2.8641,101.99,
40.16,80.75,-2.7802,2.0021,-1.3222,1.3384,74.158,
40.16,80.75,7.9464,-5.1948,-5.4679,2.5741,102.54,
40.16,80.75,-3.6361,-4.9805,2.0075,6.6847,75.714,
40.16,80.75,11.659,-23.721,30.667,-18.786,82.031,
41.16,80.017,-3.7542,2.9785,-1.6283,1.6595,74.158,
41.16,80.017,7.9567,-2.2276,-5.7188,-0.24882,114.53,
41.16,80.017,15.956,-29.717,39.325,-25.779,81.757,
41.16,80.017,-0.53863,-6.7985,1.3578,5.9771,74.707,
42.16,79.376,-1.7335,0.35318,-0.26799,0.88421,74.158,
42.16,79.376,8.4067,1.3779,-5.4405,-4.4368,109.5,
42.16,79.376,2.8535,-6.2113,-3.1743,6.5285,75.165,
42.16,79.376,17.823,-24.263,26.137,-19.767,81.116,
43.16,79.102,-0.75321,0.18,0.95295,0.38472,73.608,
43.16,79.102,16.569,2.0396,-8.9716,-9.4522,69.305,
43.16,79.102,-3.3393,6.3157,3.1579,-6.1652,75.623,
43.16,79.102,14.919,-24.727,28.491,-18.709,80.2,
44.16,78.461,-2.3467,0.062855,0.27863,1.2408,74.432,
44.16,78.461,-9.6487,-2.3767,2.9436,9.2064,70.038,
44.16,78.461,3.9164,-4.0162,-6.8387,6.9023,76.172,
44.16,78.461,-16.086,26.524,-29.522,19.131,78.735,
45.16,78.369,-2.4381,-0.87697,0.69642,1.8673,74.615,
45.16,78.369,8.1643,2.6164,-8.4888,-2.4584,68.756,
45.16,78.369,-1.689,5.496,2.0862,-5.9982,75.348,
45.16,78.369,9.887,-9.8778,12.702,-12.792,77.82,
46.16,78.094,1.5012,-2.8481,2.8844,-2.2963,74.89,
46.16,78.094,8.2696,-20.407,29.306,-16.917,77.087,
46.16,78.094,1.6654,-7.0276,-0.56904,5.9649,74.799,
46.16,78.094,17.369,-0.79604,-8.6598,-7.7622,94.666,
47.16,78.003,-3.3057,0.7916,-0.31814,2.0662,75.348,
47.16,78.003,-7.3441,-4.5858,8.6198,3.4349,65.277,
47.16,78.003,12.011,-10.678,12.782,-14.229,78.094,
47.16,78.003,3.0733,-6.4566,-2.4018,5.7559,74.707,
48.16,78.003,1.757,-2.0885,2.9574,-1.8632,76.172,
48.16,78.003,-10.802,12.399,-14.648,13.187,78.278,
48.16,78.003,2.7503,-7.3854,-1.2706,5.9077,74.615,
48.16,78.003,15.675,3.3367,-12.127,-6.7805,64.545,
49.16,77.82,-1.9409,1.6656,-1.5132,1.0126,93.018,
49.16,77.82,12.223,-10.288,10.773,-12.803,78.278,
49.16,77.82,0.63259,-5.4219,-2.6369,7.3717,118.19,
49.16,77.82,12.085,5.8397,-15.736,-2.134,63.171,
50.16,77.637,-2.2607,1.181,0.19987,0.10928,75.806,
50.16,77.637,0.22622,-4.6644,-1.9312,6.2472,118.38,
50.16,77.637,13.212,3.3681,-11.991,-4.754,120.3,
50.16,77.637,10.828,-12.439,13.137,-11.587,77.637,
51.16,77.545,-2.9944,-0.54958,1.4641,1.3397,74.799,
51.16,77.545,3.5186,2.4103,-8.8331,2.6486,80.109,
51.16,77.545,12.387,-10.2,11.036,-13.304,77.362,
51.16,77.545,1.5818,-7.8074,-0.26212,6.5759,119.11,
52.16,77.728,-2.9228,0.8539,0.99593,0.30176,74.432,
52.16,77.728,9.0898,-1.1747,-9.0034,0.92517,86.609,
52.16,77.728,11.427,-13.506,15.557,-13.524,77.179,
52.16,77.728,-1.096,-5.7455,-0.67985,7.5332,74.982,
53.16,78.094,-0.25696,1.1838,-3.0951,1.3943,73.517,
53.16,78.094,11.536,-13.419,15.114,-13.332,78.094,
53.16,78.094,-19.462,0.85696,15.379,3.0146,90.82,
53.16,78.094,1.0592,-6.5081,-1.8146,7.2959,74.799,
54.16,78.735,1.5614,-0.43273,2.2321,-2.6228,73.7,
54.16,78.735,3.5537,-5.9971,1.2011,1.3823,73.975,
54.16,78.735,-12.855,14.79,-21.706,20.172,79.102,
54.16,78.735,14.655,0.44905,-12.561,-2.5871,91.736,
55.16,79.559,-2.0464,1.1222,-2.1215,2.2851,74.615,
55.16,79.559,3.128,-5.8724,-1.0862,3.916,110.05,
55.16,79.559,17.817,-23.67,25.821,-20.209,79.559,
55.16,79.559,14.452,3.0435,-11.639,-5.9645,91.736,
56.16,80.109,-1.7467,1.6607,-3.1003,2.4314,75.439,
56.16,80.109,1.0859,-6.0249,-1.2344,6.2754,111.51,
56.16,80.109,20.764,-26.571,25.666,-20.108,80.383,
56.16,80.109,17.966,-2.9595,-10.78,-4.1654,95.215,
57.16,81.116,-1.0149,0.61283,-1.658,1.2937,76.263,
57.16,81.116,9.6128,-13.246,13.18,-9.6422,81.757,
57.16,81.116,1.7048,-6.0943,-1.15,5.613,77.271,
57.16,81.116,-18.068,0.59844,13.322,4.1484,52.643,
58.16,82.214,0.84865,-1.438,1.9631,-0.60663,76.538,
58.16,82.214,-23.653,26.612,-19.075,16.301,96.497,
58.16,82.214,12.557,0.82931,-15.718,2.4478,53.009,
58.16,82.214,-7.2689,-0.46264,-6.7546,14.438,79.01,
59.16,83.679,1.5607,-1.9056,3.5336,-2.4313,77.179,
59.16,83.679,-1.0293,5.0521,1.4941,-5.6447,76.813,
59.16,83.679,21.972,-31.821,29.254,-19.68,97.961,
59.16,83.679,17.539,-1.7012,-12.514,-3.2587,70.496,
60.16,85.236,0.49023,-0.58061,2.8903,-2.0372,76.996,
60.16,85.236,-0.43755,4.1799,2.112,-6.0187,96.039,
60.16,85.236,17.783,-27.578,27.172,-17.584,99.426,
60.16,85.236,16.905,-0.94113,-12.778,-3.0838,48.431,
61.16,86.243,-0.3393,2.0046,-2.5188,0.084441,76.172,
61.16,86.243,0.60513,-4.4822,-0.69447,4.4388,74.89,
61.16,86.243,11.549,-20.575,25.663,-16.931,85.236,
61.16,86.243,-19.635,4.2989,10.602,4.6581,61.249,
62.16,86.426,0.047655,-0.67458,2.3827,-0.98833,73.975,
62.16,86.426,0.13665,-3.9396,-0.51949,4.4249,69.397,
62.16,86.426,13.221,0.374,-12.166,-1.2743,62.073,
62.16,86.426,-13.55,19.242,-14.967,9.4761,100.89,
63.16,85.876,0.13736,0.46898,-1.9552,0.56311,69.672,
63.16,85.876,13.845,0.27468,-17.091,3.1533,86.975,
63.16,85.876,16.42,-24.401,18.85,-10.93,52.643,
63.16,85.876,-6.8071,-6.0807,-1.4004,14.307,67.749,
64.16,84.503,-0.85868,1.5648,-2.5769,1.0914,67.017,
64.16,84.503,-0.50655,3.3379,2.618,-5.4839,99.518,
64.16,84.503,7.8113,-23.514,26.442,-10.993,85.327,
64.16,84.503,20.275,-4.54,-6.2613,-9.4864,54.199,
65.16,83.221,-1.668,1.4246,-1.9265,1.3948,66.101,
65.16,83.221,11.209,-20.556,17.994,-8.8994,84.869,
65.16,83.221,-7.3615,-4.1619,-0.35492,12.029,100.07,
65.16,83.221,11.4,-1.919,-14.527,5.012,53.101,
66.16,82.214,-1.0397,0.20498,-1.9629,2.0293,65.369,
66.16,82.214,-5.1009,-5.0477,-0.037094,10.532,100.43,
66.16,82.214,9.1292,-0.11123,-12.822,3.915,51.636,
66.16,82.214,10.441,-17.707,13.892,-6.7965,84.045,
67.16,82.031,-1.0135,-0.29897,-2.2178,2.7925,65.094,
67.16,82.031,-3.4106,-7.3506,1.874,9.3838,100.98,
67.16,82.031,9.1932,2.6003,-15.074,3.4837,53.833,
67.16,82.031,12.771,-18.346,13.431,-8.0361,82.672,
68.16,81.757,-1.2881,0.87393,-3.1327,2.8,64.819,
68.16,81.757,-7.8405,-4.4996,2.8321,9.8204,103.55,
68.16,81.757,9.1334,-17.793,16.723,-8.383,81.757,
68.16,81.757,10.554,-5.2763,-9.5756,4.556,53.009,
69.16,81.757,-1.2837,0.94509,-3.4227,3.0223,65.094,
69.16,81.757,-4.8672,-7.2499,2.5642,9.9014,105.47,
69.16,81.757,7.8468,-18.327,20.582,-10.478,79.834,
69.16,81.757,13.571,-5.4754,-9.0042,1.0605,69.58,
70.16,81.39,0.63298,-1.3731,3.5762,-2.0879,65.552,
70.16,81.39,-6.6833,9.1736,-8.5444,6.2559,79.376,
70.16,81.39,1.0758,4.3638,-1.4433,-4.0638,46.967,
70.16,81.39,11.592,-1.6329,-13.008,3.303,68.298,
71.16,80.566,0.96686,-1.4798,2.3005,-1.0067,64.636,
71.16,80.566,9.9844,-24.692,25.198,-10.677,63.721,
71.16,80.566,10.528,2.4498,1.4517,-14.471,105.93,
71.16,80.566,17.598,-14.777,-5.7556,2.9579,81.116,
72.16,79.102,-0.84496,2.5037,-3.7445,1.3157,64.27,
72.16,79.102,15.594,-30.69,30.188,-15.337,61.066,
72.16,79.102,15.887,-3.5637,-11.249,-0.92597,53.65,
72.16,79.102,-1.36,-3.7153,-2.1954,7.2827,130.28,
73.16,76.813,1.0348,0.18648,0.13137,-0.55352,62.988,
73.16,76.813,9.1324,-3.9539,-0.71838,-4.5434,128.27,
73.16,76.813,1.8351,-7.3923,-2.7001,8.2919,129.36,
73.16,76.813,7.8079,-36.854,44.4,-15.365,57.861,
74.16,74.799,-0.44742,1.3387,-0.21231,0.12001,61.249,
74.16,74.799,-1.7279,-3.9403,0.70489,5.046,128.36,
74.16,74.799,8.3008,-6.0787,-0.22784,-1.9297,127.62,
74.16,74.799,-8.1805,26.334,-36.324,18.231,58.044,
75.16,74.249,-1.1106,2.6093,-1.1695,0.45394,91.37,
75.16,74.249,7.3373,-5.204,-0.72866,-1.2882,127.35,
75.16,74.249,-1.546,-3.4472,0.5067,4.6083,127.62,
75.16,74.249,-8.669,22.889,-29.263,14.999,59.143,
76.16,73.975,-0.37374,0.98031,0.52648,-0.34656,60.425,
76.16,73.975,-1.8115,-2.5495,-0.72087,5.1876,126.8,
76.16,73.975,6.9192,-3.8636,-2.3365,-0.62189,126.98,
76.16,73.975,-4.5445,11.972,-14.579,7.2018,75.623,
77.16,74.707,-1.0095,2.6775,-1.5118,0.63326,60.883,
77.16,74.707,-1.2564,-3.9514,0.85988,4.4569,126.07,
77.16,74.707,7.4871,-4.9344,-1.3206,-1.1356,91.37,
77.16,74.707,-8.1771,21.739,-27.635,13.997,76.08,
78.16,75.531,-0.56904,2.829,-2.2276,0.75396,126.16,
78.16,75.531,-2.1433,-3.0271,0.62719,4.6501,126.34,
78.16,75.531,6.1768,-4.8622,-1.5827,0.3437,104.37,
78.16,75.531,-8.1608,23.249,-29.913,14.692,75.989,
79.16,75.897,-0.95075,3.2204,-2.4173,0.93835,62.347,
79.16,75.897,-2.0198,-2.8213,0.39067,4.5522,127.17,
79.16,75.897,6.3336,-5.2568,-0.80935,-0.15638,104.92,
79.16,75.897,-7.3333,21.439,-28.176,13.928,75.897,
80.16,75.623,-0.11951,0.62112,0.57598,-0.29687,64.27,
80.16,75.623,7.7072,-5.2814,-2.5646,0.21437,105.01,
80.16,75.623,2.551,3.6834,-0.12647,-6.1551,128.81,
80.16,75.623,-5.879,15.519,-18.716,9.1059,76.447,
81.16,75.348,0.57274,-2.1635,3.3892,-1.0089,64.362,
81.16,75.348,-5.0173,15.116,-18.542,8.5925,75.714,
81.16,75.348,-1.3713,-6.1292,1.7385,5.7492,130.83,
81.16,75.348,9.9993,-7.577,-1.1185,-1.2632,104.74,
82.16,74.432,-1.2656,-0.5082,1.0613,-0.090184,46.326,
82.16,74.432,9.9074,-5.7113,-3.0307,-1.2566,104.74,
82.16,74.432,-2.1124,-1.7193,-4.4341,8.3104,130.83,
82.16,74.432,-11.857,34.434,-38.905,16.331,75.256,
83.16,74.249,1.1851,0.34192,-0.076074,-0.66413,119.84,
83.16,74.249,0.75891,2.3942,2.2806,-5.5821,130.37,
83.16,74.249,10.156,1.7589,-16.837,4.8306,101.17,
83.16,74.249,-19.628,28.648,-22.996,14.068,74.066,
84.16,74.066,1.7475,0.1717,-0.81011,-0.31312,118.29,
84.16,74.066,0.074541,3.5678,2.4284,-6.1807,117.65,
84.16,74.066,11.068,0.057332,-15.592,4.2376,76.447,
84.16,74.066,-18.487,27.854,-21.18,11.874,74.158,
85.16,74.524,-2.7537,1.5748,-1.621,2.034,121.49,
85.16,74.524,0.54781,-6.4562,0.86148,5.1931,116.36,
85.16,74.524,10.27,-6.0462,-4.2362,-0.09685,109.95,
85.16,74.524,-7.6228,14.902,-16.57,9.4218,73.975,
86.16,75.165,1.0284,0.27045,0.75638,-1.2677,98.145,
86.16,75.165,3.4995,0.35132,3.613,-7.6252,115.91,
86.16,75.165,8.7142,-3.5362,-8.06,2.8889,76.263,
86.16,75.165,-18.093,31.605,-27.603,14.117,95.581,
87.16,75.623,1.4585,0.91057,-0.87235,-0.72084,124.05,
87.16,75.623,3.5825,-0.34174,4.5937,-8.0128,115.26,
87.16,75.623,6.6598,-2.4695,-7.4793,3.1925,76.263,
87.16,75.623,-16.598,32.041,-28.733,13.212,95.581,
88.16,75.623,-2.0371,0.80917,-1.5739,2.0273,95.49,
88.16,75.623,-1.8108,-2.0236,-3.3179,7.3319,114.62,
88.16,75.623,-25.585,37.012,-26.57,15.29,95.032,
88.16,75.623,19.186,-5.69,-16.208,2.6323,75.989,
89.16,75.531,-1.4799,-0.78687,0.25141,1.2376,93.292,
89.16,75.531,-3.7167,-2.9525,0.15052,6.6981,114.26,
89.16,75.531,9.7932,-1.6934,-13.343,5.2304,76.355,
89.16,75.531,-16.372,19.493,-12.32,9.2343,95.398,
90.16,74.982,-1.5519,2.6394,-4.5879,2.7323,88.989,
90.16,74.982,-6.9571,-0.53694,10.961,-3.6616,55.023,
90.16,74.982,3.8901,2.0504,0.063776,-6.1128,114.62,
90.16,74.982,-25.178,30.939,-16.077,10.637,95.856,
91.16,74.707,2.2083,-1.519,0.95774,-0.88611,86.151,
91.16,74.707,3.6466,0.29775,0.75472,-4.8435,145.75,
91.16,74.707,-14.434,21.16,-13.844,7.3853,81.299,
91.16,74.707,8.406,-0.1972,-14.468,6.2098,54.199,
92.16,74.158,2.2267,-1.4769,-0.68223,0.69013,84.412,
92.16,74.158,5.2257,-3.0768,-4.9577,2.5131,119.29,
92.16,74.158,-4.6596,-2.2624,-1.1541,8.0546,117,
92.16,74.158,15.528,-30.993,37.17,-21.754,74.982,
93.16,74.249,0.73158,-1.3813,1.6411,-0.19962,82.947,
93.16,74.249,2.8308,-5.379,-0.87685,3.3389,118.74,
93.16,74.249,4.5103,-13.382,17.938,-9.1725,75.256,
93.16,74.249,7.438,0.22526,-2.7577,-4.9027,117.28,
94.16,74.432,2.2251,-1.8994,1.5488,-1.1068,81.299,
94.16,74.432,8.5897,-1.0869,-2.6766,-4.9714,117,
94.16,74.432,1.8895,-5.3765,-0.7529,4.1527,118.38,
94.16,74.432,4.907,-14.552,19.655,-10.12,75.256,
95.16,74.799,0.73038,1.8214,-3.0514,1.2677,80.75,
95.16,74.799,6.7908,0.53981,-5.4919,-2.0097,117.28,
95.16,74.799,0.44012,-3.4371,-1.7739,4.7227,118.01,
95.16,74.799,-11.329,23.916,-28.115,15.408,76.08,
96.16,75.165,-0.19317,2.9382,-4.1869,2.1972,69.305,
96.16,75.165,2.4945,-4.0381,-2.5508,3.9922,69.855,
96.16,75.165,9.5547,-24.959,30.012,-14.332,76.355,
96.16,75.165,6.6043,1.3911,-3.5576,-4.5121,116.36,
97.16,75.623,2.4491,-2.9073,3.2259,-2.0173,75.989,
97.16,75.623,3.9659,-12.521,16.507,-8.1343,46.143,
97.16,75.623,6.8746,0.94619,-2.7434,-5.2153,116.36,
97.16,75.623,3.5585,-6.8164,1.1296,2.0347,68.756,
98.16,76.263,1.5163,0.51761,-0.57905,-0.68561,75.165,
98.16,76.263,8.2236,-1.1966,-1.985,-5.2085,116.36,
98.16,76.263,1.8039,-4.7641,-0.91134,3.8958,70.862,
98.16,76.263,4.4682,-14.197,20.089,-10.4,60.242,114.62
99.16,76.538,-3.0808,2.5566,-2.2685,2.0485,74.707,
99.16,76.538,8.6016,-0.29862,-4.3645,-4.1378,81.116,
99.16,76.538,4.908,-15.277,20.502,-10.282,61.34,
99.16,76.538,-1.6468,6.1497,-0.087135,-4.3694,72.51,
100.16,76.904,-2.6142,1.283,0.16721,0.41369,74.249,
100.16,76.904,8.7587,-0.58598,-3.7428,-4.6263,81.573,
100.16,76.904,-1.2985,5.2391,1.5076,-5.3303,73.242,
100.16,76.904,4.6463,-15.885,21.914,-10.737,64.27,
101.16,77.362,1.7259,-1.598,-0.61027,1.2307,73.7,
101.16,77.362,-1.8583,3.4085,4.134,-5.4347,73.883,
101.16,77.362,8.6432,-1.2814,-1.0334,-6.4234,75.806,
101.16,77.362,7.9269,-23.326,31.101,-15.783,80.2,
102.16,77.454,-0.91581,1.6219,-1.5439,0.07863,74.066,
102.16,77.454,-0.33406,3.9931,3.2619,-6.8372,73.7,
102.16,77.454,4.9654,-17.887,25.139,-12.326,80.75,
102.16,77.454,11.585,-3.6102,-2.4621,-5.5449,53.65,
103.16,77.637,-0.31688,0.18158,-1.003,0.36502,73.7,
103.16,77.637,-4.0238,6.4411,2.1421,-4.5777,75.439,
103.16,77.637,12.362,-25.297,36.869,-24.012,79.376,
103.16,77.637,17.607,8.2852,-18.69,-7.1601,52.826,
104.16,77.545,-0.22798,2.2821,-3.4497,0.63428,74.066,
104.16,77.545,5.6665,-26.608,40.026,-19.314,77.087,
104.16,77.545,-4.2236,6.2963,2.5693,-4.6096,75.623,
104.16,77.545,22.127,-0.34608,-5.0904,-16.592,67.383,
105.16,77.728,0.84685,-0.61272,-0.57003,-0.42895,74.249,
105.16,77.728,-4.219,5.0471,3.6804,-4.5836,75.623,
105.16,77.728,16.165,-0.64284,0.61061,-16.01,133.67,
105.16,77.728,1.001,24.385,-41.098,15.804,51.178,
106.16,77.545,-0.2512,0.68412,-1.4552,0.25388,74.89,
106.16,77.545,-4.4029,5.1759,3.8738,-4.6452,75.073,
106.16,77.545,-0.52293,25.755,-39.929,14.846,76.355,
106.16,77.545,-19.588,2.3442,1.1473,16.074,134.22,
107.16,77.179,-0.82047,1.0709,-1.6489,0.62699,75.531,
107.16,77.179,11.68,-18.9,24.143,-17.08,76.996,
107.16,77.179,-2.3985,5.5425,2.9779,-6.1113,74.341,
107.16,77.179,18.247,3.0827,-11.895,-9.3959,79.834,
108.16,76.721,-1.3539,2.3279,-2.3947,0.65846,76.08,
108.16,76.721,-3.3614,5.917,2.7321,-5.1956,74.249,
108.16,76.721,10.151,-21.639,30.127,-18.873,77.179,
108.16,76.721,18.538,2.9426,-12.16,-9.2714,79.102,
109.16,76.263,-5.5912,3.7371,-1.8452,3.0038,118.47,
109.16,76.263,0.42352,-4.5798,-4.224,8.2307,119.2,
109.16,76.263,11.253,-17.247,25.963,-20.434,76.904,
109.16,76.263,14.908,3.0083,-13.755,-4.5854,78.735,
110.16,76.08,-2.6269,2.4886,-1.6724,1.0562,118.38,
110.16,76.08,-2.9602,4.6448,3.3436,-4.8686,118.65,
110.16,76.08,10.72,-20.566,28.017,-18.422,76.447,
110.16,76.08,15.275,5.5564,-10.967,-9.9325,138.34,
111.16,75.897,1.7197,-0.55189,1.7333,-2.1308,74.89,
111.16,75.897,1.408,6.5592,-0.46996,-7.5765,76.63,
111.16,75.897,10.638,-5.8038,-1.7104,-3.1829,78.369,
111.16,75.897,-2.8845,8.6226,-17.962,12.309,74.615,
112.16,76.538,-1.7832,1.3838,0.34856,-0.72901,74.432,
112.16,76.538,10.895,-3.9926,-5.8354,-1.1593,76.813,
112.16,76.538,-1.3919,-7.4643,0.7125,8.0693,76.538,
112.16,76.538,6.8007,-10.98,16.451,-12.288,74.799,
113.16,77.179,-4.7246,4.2842,-3.8253,3.5198,72.876,
113.16,77.179,12.717,-6.1687,-4.8662,-1.8485,72.601,
113.16,77.179,-8.2054,21.583,-31.42,18.435,75.989,
113.16,77.179,-2.6148,-3.8499,-3.5273,10.044,77.362,
114.16,78.003,-0.52567,-0.94761,-0.83081,1.5503,73.975,
114.16,78.003,-1.9604,5.7415,-0.43474,-3.5336,75.348,
114.16,78.003,8.3941,-1.2567,-2.8365,-4.3445,77.911,
114.16,78.003,5.6885,-14.826,26.513,-17.502,69.122,
115.16,79.193,-4.291,2.8159,-2.5307,3.2616,74.432,
115.16,79.193,0.84362,-5.4958,-1.1433,5.9249,75.348,
115.16,79.193,24.135,-25.583,17.142,-16.074,76.996,
115.16,79.193,7.4279,1.7204,-9.5241,0.33804,79.285,
116.16,79.742,-1.7928,1.1838,-1.9655,1.8125,75.256,
116.16,79.742,-0.5659,-6.1577,-0.11461,6.9192,75.623,
116.16,79.742,22.889,-24.574,16.897,-15.412,80.292,
116.16,79.742,7.5172,-0.49543,-9.1736,2.196,81.94,
117.16,80.017,-4.832,3.5499,-2.5537,3.0998,75.714,
117.16,80.017,-19.878,28.89,-26.375,17.768,81.39,
117.16,80.017,-0.21022,-4.503,-3.2166,8.0156,76.08,
117.16,80.017,17.251,0.78856,-19.667,1.4099,83.588,
118.16,79.926,-3.69,3.427,-3.0306,2.5498,76.08,
118.16,79.926,-16.488,22.361,-22.706,17.269,81.482,
118.16,79.926,8.4246,-1.1192,-10.817,3.4749,82.764,
118.16,79.926,-1.7374,-5.7222,2.5364,4.9433,75.531,
119.16,79.468,-3.7114,3.2555,-3.1824,2.8897,76.172,
119.16,79.468,19.593,-26.854,22.648,-15.784,66.925,
119.16,79.468,0.20544,-5.2325,-2.0179,7.1368,77.362,
119.16,79.468,11.528,6.0532,-20.843,3.1964,84.778,
120.16,78.461,-2.7508,2.9064,-3.2919,2.372,76.263,
120.16,78.461,-18.78,26.821,-23.678,16.002,64.27,
120.16,78.461,1.7281,-7.3363,-0.097049,5.7724,118.84,
120.16,78.461,12.704,4.0952,-19.576,2.7893,56.671,
121.16,76.721,2.5794,-0.87024,-2.2587,1.3103,75.897,
121.16,76.721,0.76373,-7.6463,1.4174,5.3348,78.918,
121.16,76.721,14.458,-1.0518,-11.105,-2.7154,58.502,
121.16,76.721,18.816,-25.165,21.834,-15.441,62.439,
122.16,74.799,-2.3392,3.1217,-2.1915,0.63983,72.968,
122.16,74.799,-6.7682,20.51,-21.895,8.4233,60.242,
122.16,74.799,1.2026,-6.2259,-0.47098,5.4575,49.438,
122.16,74.799,15.493,-5.9291,-5.9634,-3.7393,65.002,
123.16,73.517,0.73989,-5.4734,6.1341,-2.127,98.694,
123.16,73.517,-7.2445,14.666,-9.8702,2.1454,72.51,
123.16,73.517,5.2724,-3.3254,-9.2856,7.1881,64.911,
123.16,73.517,-14.206,-3.4539,4.1424,13.602,56.305,
124.16,72.601,-2.0622,-0.9777,1.2699,0.99908,48.248,
124.16,72.601,-13.955,-2.6777,12.399,4.5443,99.792,
124.16,72.601,2.8546,-7.1105,-1.7601,6.0834,62.622,
124.16,72.601,16.773,-25.178,20.951,-12.608,98.419,
125.16,72.418,-2.294,-0.35524,0.69502,1.1882,65.643,
125.16,72.418,-9.907,-5.7446,8.4787,7.537,99.152,
125.16,72.418,-14.823,21.801,-16.136,9.2231,54.199,
125.16,72.418,7.1302,-7.6193,-14.411,14.945,65.002,
126.16,72.693,-4.4636,2.2215,1.2186,0.29089,64.178,
126.16,72.693,4.6234,-5.0147,-6.4116,6.5922,65.094,
126.16,72.693,-7.6324,-6.2514,6.3785,7.9253,99.243,
126.16,72.693,-13.116,19.897,-17.922,11.368,99.518,
127.16,73.7,-4.2754,2.1452,1.5099,-0.11113,63.629,
127.16,73.7,4.3057,-6.214,-4.8985,6.5817,65.186,
127.16,73.7,-9.5548,-3.6904,4.7855,8.893,99.701,
127.16,73.7,-10.385,17.476,-18.352,11.387,49.988,
128.16,74.341,3.5714,-1.1644,-0.80981,-0.84092,64.27,
128.16,74.341,-8.7283,-5.0753,4.877,9.3435,100.62,
128.16,74.341,12.338,-19.605,13.778,-6.7275,48.798,
128.16,74.341,-4.0412,2.48,15.716,-13.997,66.101,
129.16,74.799,-2.266,0.9557,-1.0015,1.5365,64.911,
129.16,74.799,-14.434,18.368,-19.868,16.157,103.09,
129.16,74.799,-4.7342,-10.809,6.6671,9.0291,81.116,135.04
129.16,74.799,10.675,-7.4527,-14.5,11.277,126.98,
130.16,74.707,-2.1477,0.95098,-0.48481,0.91283,65.277,
130.16,74.707,5.4863,-7.4576,-2.1758,4.082,73.151,
130.16,74.707,-10.362,-3.5053,5.7857,8.2758,83.862,
130.16,74.707,-8.5302,13.324,-22.924,18.255,65.186,
131.16,74.341,2.1859,-1.1061,-0.51859,0.22258,64.819,
131.16,74.341,17.689,-18.531,-0.58987,1.2532,61.798,
131.16,74.341,10.39,7.5892,-4.1409,-13.892,131.74,
131.16,74.341,4.6887,-17.512,34.687,-21.839,66.101,
132.16,73.7,1.2927,-0.22899,-0.90205,-0.93017,64.087,
132.16,73.7,-6.3916,-0.91358,0.67115,6.4879,129.27,
132.16,73.7,5.8807,-5.0156,-6.6108,5.8145,72.968,
132.16,73.7,-12.884,30.246,-34.244,16.912,76.08,
133.16,73.151,1.009,0.68606,-3.2918,2.3896,89.905,
133.16,73.151,-6.5173,6.7948,6.1831,-6.3398,61.34,
133.16,73.151,5.3567,5.1153,-5.7787,-4.7241,128.72,
133.16,73.151,13.711,-37.57,47.134,-23.202,73.334,
134.16,72.693,0.97358,-0.48898,0.81788,-0.50637,91.187,
134.16,72.693,-2.2211,-2.1781,-2.0357,6.5085,129.46,
134.16,72.693,7.8731,-2.8945,-4.8049,-0.19801,61.707,
134.16,72.693,-10.264,29.085,-33.7,15.004,73.059,
135.16,72.327,-0.16536,1.2518,-0.79165,0.49891,91.553,
135.16,72.327,-2.0158,-1.9498,-2.2517,6.2652,128.63,
135.16,72.327,7.6161,-3.4453,-3.8543,-0.28932,62.347,
135.16,72.327,-9.7185,27.563,-32.838,14.973,72.601,
136.16,72.144,-0.75219,2.2954,-1.9625,1.2162,60.608,
136.16,72.144,-10.21,26.414,-30.726,14.417,72.601,
136.16,72.144,1.5659,3.2892,0.28073,-5.1691,127.44,
136.16,72.144,7.7707,-3.8427,-3.5767,-0.3137,62.897,
137.16,72.235,-0.90666,1.9238,-1.2372,1.0156,61.066,
137.16,72.235,8.0413,-3.6397,-4.1933,-0.14373,63.538,
137.16,72.235,1.7915,2.6489,1.0358,-5.5008,126.71,
137.16,72.235,-9.021,24.242,-28.428,13.128,72.327,
138.16,71.96,-1.5965,2.9824,-2.0953,1.5012,61.432,
138.16,71.96,8.7606,-4.9399,-3.4367,-0.28765,63.08,
138.16,71.96,9.8934,-26.726,31.878,-14.929,73.151,
138.16,71.96,2.1569,2.251,1.3837,-5.813,126.43,
139.16,71.594,-1.537,2.8883,-2.2331,1.6799,62.256,
139.16,71.594,-9.7228,22.288,-26.099,13.38,73.242,
139.16,71.594,8.0836,-4.8583,-2.9532,-0.19416,104.19,
139.16,71.594,2.3167,2.1082,0.99504,-5.4287,126.89,
140.16,71.228,1.8269,-4.3477,3.8317,-2.0834,65.46,
140.16,71.228,-10.82,30.77,-36.387,16.193,58.228,
140.16,71.228,10.651,-6.3781,-3.3752,-0.83187,104.37,
140.16,71.228,-2.602,-2.7496,-1.8789,7.2604,127.99,
141.16,70.404,0.59989,-0.12429,-0.67835,-0.59827,64.087,
141.16,70.404,-0.71394,-6.8666,2.5268,5.0209,130.83,
141.16,70.404,12.079,-7.599,-2.9844,-1.448,104.28,
141.16,70.404,-7.6394,16.29,-19.015,10.402,71.136,
142.16,70.587,-0.92472,-1.6609,2.4764,-0.69228,45.959,
142.16,70.587,12.28,-6.1316,-4.964,-1.273,45.868,
142.16,70.587,-1.1539,-5.4974,0.56939,6.1484,130.92,
142.16,70.587,-14.317,34.729,-42.02,21.58,70.129,
143.16,70.496,1.9579,-0.15463,-0.73018,-0.28873,117.74,
143.16,70.496,8.4157,-2.5449,-7.6497,1.6681,50.629,
143.16,70.496,1.9904,1.8003,1.741,-5.6583,130.55,
143.16,70.496,8.3938,-13.464,11.512,-6.4981,69.855,
144.16,70.862,1.8899,0.49785,-2.3815,0.79071,117.19,
144.16,70.862,7.0644,-0.32666,-9.7719,2.8744,49.713,
144.16,70.862,2.357,2.0295,1.6703,-6.1246,119.29,
144.16,70.862,-11.121,14.92,-9.5103,5.7281,70.496,
145.16,71.686,-1.1128,-0.51525,0.38586,0.46013,116.27,
145.16,71.686,-4.5561,-1.9614,-0.21128,6.8589,116.46,
145.16,71.686,15.853,-3.4114,-18.289,5.8442,112.15,
145.16,71.686,-11.198,16.503,-12.222,6.9434,70.953,
146.16,72.144,-0.92087,-0.98161,0.836,0.27846,111.79,
146.16,72.144,-3.6046,-2.1517,-0.41104,6.3083,115.36,
146.16,72.144,14.991,-2.6415,-17.282,4.899,52.094,
146.16,72.144,-11.05,15.299,-11.137,6.9025,71.32,
147.16,72.876,-0.35699,-2.7234,2.8853,-0.57386,97.229,
147.16,72.876,-2.8526,-2.393,-1.4471,6.8576,113.89,
147.16,72.876,-11.756,22.592,-25.039,13.976,72.327,
147.16,72.876,18.683,-8.5795,-11.866,1.6695,119.75,
148.16,73.151,-0.82314,-0.82176,-0.049988,0.9158,95.581,
148.16,73.151,-3.7744,-2.7023,0.3091,6.3251,113.98,
148.16,73.151,-10.423,14.877,-11.375,6.943,72.601,
148.16,73.151,14.893,-3.9719,-17.043,6.166,73.883,
149.16,72.876,1.2924,0.6507,0.04729,-1.2121,93.75,
149.16,72.876,4.5689,2.9447,-0.74766,-6.9277,113.98,
149.16,72.876,11.893,-18.162,15.257,-9.0243,72.784,
149.16,72.876,19.26,-6.4079,-19.325,6.4953,88.257,
150.16,72.418,1.3783,0.069674,-0.041151,-0.60154,87.891,
150.16,72.418,4.3644,2.4306,-0.7291,-6.178,114.72,
150.16,72.418,9.6477,-14.076,11.181,-6.7945,72.876,
150.16,72.418,16.853,-5.69,-17.131,5.9709,88.257,
151.16,71.686,1.6999,-0.63371,0.6615,-0.96293,85.693,
151.16,71.686,2.0069,2.8759,-0.9067,-4.1212,115.54,
151.16,71.686,-7.8257,10.123,-9.1642,6.9815,72.327,
151.16,71.686,10.755,-5.0248,-11.011,5.2327,102.91,
152.16,70.953,-2.1166,0.97924,2.1004,-1.7265,83.862,
152.16,70.953,7.3943,-2.0406,-3.5394,-2.0565,101.9,
152.16,70.953,0.74106,-7.8015,1.7453,5.1625,83.862,
152.16,70.953,11.145,-19.911,34.773,-25.922,71.228,
153.16,70.679,1.6079,-1.1374,1.0635,-0.75065,83.313,
153.16,70.679,7.6434,-1.9509,0.079381,-5.8927,116.46,
153.16,70.679,2.8419,-6.4835,0.38695,3.1767,119.38,
153.16,70.679,-7.877,21.068,-33.815,20.774,70.129,
154.16,70.679,-1.5572,-1.0737,2.7881,-0.92313,82.123,
154.16,70.679,8.4845,-3.4802,0.088953,-5.2862,116,
154.16,70.679,9.0945,-25.123,40.869,-24.713,68.756,
154.16,70.679,1.0473,-5.8565,-0.18044,4.9688,82.397,
155.16,71.32,2.313,-0.19894,-1.1898,-0.16737,80.109,
155.16,71.32,7.891,-4.619,-0.14517,-3.3902,115.36,
155.16,71.32,-1.1046,-3.2354,-1.0474,5.4112,117.65,
155.16,71.32,8.1362,-22.093,33.181,-19.212,67.566,
156.16,72.052,2.966,-1.2655,1.2015,-2.1524,78.552,
156.16,72.052,6.831,0.061205,-2.8743,-4.2479,115.36,
156.16,72.052,3.5108,-7.2709,1.6931,2.0171,70.679,
156.16,72.052,11.279,-20.44,33.704,-24.718,64.636,
157.16,73.151,-2.2355,0.2823,0.33701,0.85889,76.263,
157.16,73.151,6.6376,0.083464,-1.7371,-5.1938,79.468,
157.16,73.151,3.391,-6.0272,-0.48096,3.039,71.96,
157.16,73.151,5.4403,-9.7225,15.105,-10.835,64.27,
158.16,73.792,2.5375,-0.77969,1.3267,-2.3316,75.165,
158.16,73.792,5.7631,2.3478,-4.2231,-4.0742,79.01,
158.16,73.792,-12.077,18.953,-27.635,20.97,64.178,
158.16,73.792,4.3266,-6.4256,0.28607,1.7924,72.052,
159.16,74.158,-2.8935,0.8431,-0.35842,1.6561,74.615,
159.16,74.158,-7.7876,2.1028,3.2963,2.6093,80.292,
159.16,74.158,0.10123,-5.1591,-0.87638,5.9778,73.7,
159.16,74.158,12.746,-20.087,27.264,-20.054,64.545,
160.16,74.066,-4.2054,4.1246,-4.0422,3.3916,74.341,
160.16,74.066,-8.8327,4.5264,1.9145,2.6298,66.925,116.27
160.16,74.066,6.0318,-11.832,19.351,-13.737,67.383,
160.16,74.066,-1.2942,-5.3576,0.80235,5.8103,74.249,
161.16,74.158,-2.366,1.5635,-0.02732,0.073074,73.608,
161.16,74.158,1.1367,-4.4065,-3.1913,6.3184,74.066,
161.16,74.158,8.7064,-0.66088,-3.5878,-4.6165,56.03,
161.16,74.158,13.9,-27.121,40.523,-27.421,67.474,
162.16,73.975,-3.1628,1.6072,-2.5083,3.3199,74.066,
162.16,73.975,7.3757,-11.067,17.352,-13.818,70.496,
162.16,73.975,-9.3141,4.3344,3.5764,1.5134,55.481,
162.16,73.975,-3.8194,-9.5247,2.6851,10.857,73.517,
163.16,74.432,-1.2496,1.6411,-2.663,1.5093,73.517,
163.16,74.432,10.799,-11.947,13.949,-12.932,71.869,
163.16,74.432,15.684,1.6821,-16.21,-1.0413,67.932,
163.16,74.432,-1.3355,-8.2209,-4.2932,13.822,75.073,
164.16,74.524,-3.2868,2.5735,-1.5123,1.4753,74.249,
164.16,74.524,-10.486,2.2352,7.1952,1.1876,67.932,
164.16,74.524,8.9554,-11.435,16.484,-14.148,71.411,
164.16,74.524,-4.5134,-9.3851,-0.14868,13.909,74.249,
165.16,75.165,-1.0103,3.118,-3.441,2.0914,74.432,
165.16,75.165,2.2375,-4.7742,-1.6736,4.3368,75.806,
165.16,75.165,7.473,-18.762,33.917,-22.425,68.665,
165.16,75.165,19.571,-1.572,-4.8344,-13.158,71.411,
166.16,75.531,0.38932,-0.41122,1.1362,-0.34452,74.707,
166.16,75.531,-5.3814,10.624,-17.853,12.691,67.474,
166.16,75.531,1.9676,-6.1633,-0.48856,4.6835,75.165,
166.16,75.531,18.937,-2.7017,-6.7417,-9.4502,93.75,
167.16,75.989,2.2824,-2.6937,4.2979,-4.6382,75.531,
167.16,75.989,8.1124,-18.294,33.933,-23.462,67.841,
167.16,75.989,20.179,-2.4163,-4.4051,-13.162,74.799,
167.16,75.989,-3.9837,7.1527,-0.44229,-2.7012,75.897,
168.16,76.355,-0.24449,0.71093,-1.0224,-0.21813,75.897,
168.16,76.355,-2.9397,4.8512,4.123,-6.0031,75.623,
168.16,76.355,6.4704,-24.974,42.86,-24.495,67.749,
168.16,76.355,20.74,-3.7942,-2.4604,-14.427,77.087,
169.16,76.538,-1.3091,0.28147,1.5848,-1.3316,93.109,
169.16,76.538,-0.10981,4.6658,1.5658,-5.9991,76.08,
169.16,76.538,10.579,-1.1202,-5.7461,-3.793,78.278,
169.16,76.538,9.5969,-22.623,38.915,-25.927,69.58,
170.16,76.721,-0.16917,-0.018287,-1.2867,2.2395,76.08,
170.16,76.721,4.9274,-5.6024,-1.4868,2.0141,77.271,
170.16,76.721,18.205,3.5068,-10.695,-10.86,78.186,
170.16,76.721,10.078,-22.264,36.31,-24.09,71.777,
171.16,77.087,-2.3878,0.02383,0.79699,0.80401,74.982,
171.16,77.087,-8.8122,1.5706,5.591,1.8149,78.186,
171.16,77.087,1.1679,-6.919,1.0471,4.7564,76.172,
171.16,77.087,11.848,-19.958,34.61,-26.561,75.714,
172.16,77.179,-1.603,1.7508,-1.1305,0.20872,74.158,
172.16,77.179,-1.7578,6.3254,1.7862,-6.2589,74.89,
172.16,77.179,12.706,-2.0059,-6.2244,-4.5267,76.996,
172.16,77.179,6.8019,-25.379,46.401,-27.981,76.63,
173.16,77.362,-3.0154,3.1985,-3.3778,2.4309,73.334,
173.16,77.362,12.707,-5.4005,-2.163,-5.2856,75.439,
173.16,77.362,-1.7766,11.917,-22.235,12.256,77.82,
173.16,77.362,0.9052,-5.2929,-2.9826,7.3334,74.615,
174.16,77.728,1.1044,0.046185,1.5661,-1.9709,74.158,
174.16,77.728,3.415,-3.6896,-2.3115,2.7403,73.975,
174.16,77.728,9.5528,-16.727,27.599,-20.709,78.186,
174.16,77.728,-13.962,-5.6774,17.387,2.3822,72.693,
175.16,78.369,1.2939,-2.2877,1.9838,-0.2223,74.615,
175.16,78.369,9.4507,-19.533,25.615,-15.71,78.552,
175.16,78.369,5.7958,9.8695,-4.9183,-10.564,75.989,
175.16,78.369,19.481,-7.1142,-15.722,3.2786,70.77,
176.16,78.735,4.0171,-3.8258,1.3587,-0.81102,75.623,
176.16,78.735,17.143,-22.404,18.71,-13.811,79.01,
176.16,78.735,16.426,-5.4128,-17.17,5.8935,71.32,
176.16,78.735,7.8516,6.9555,-2.2429,-12.504,76.813,
177.16,79.01,-2.497,1.964,0.28462,-0.51011,76.263,
177.16,79.01,21.514,-9.5656,-13.04,0.80989,62.805,
177.16,79.01,-9.326,-3.589,-2.3769,15.191,77.728,
177.16,79.01,-8.8442,22.302,-24.899,11.528,56.763,
178.16,78.644,-3.254,3.7047,-1.3945,0.20855,76.172,
178.16,78.644,18.467,-22.096,16.925,-13.685,79.285,
178.16,78.644,-5.4628,-4.203,-4.4585,13.844,77.454,
178.16,78.644,-6.3065,-2.0003,9.4115,-1.0243,58.777,
179.16,77.911,-1.8988,5.0838,-3.6442,-0.25877,75.897,
179.16,77.911,-4.3162,-6.112,-2.9855,13.02,77.454,
179.16,77.911,20.843,-24.141,15.31,-12.387,100.43,
179.16,77.911,12.821,4.1903,-20.284,3.47,58.228,
180.16,77.362,-1.5782,2.3648,-3.0692,1.5165,76.263,
180.16,77.362,20.556,-23.447,15.285,-12.657,100.89,
180.16,77.362,-0.56632,-5.171,-1.0432,6.8365,77.911,
180.16,77.362,-14.26,-5.2237,20.624,-1.3183,56.946,
181.16,76.996,-2.5269,3.1609,-0.79003,-0.61579,74.89,
181.16,76.996,-5.0141,-5.5054,-2.7481,12.989,76.263,
181.16,76.996,21.548,-22.663,13.76,-12.939,100.89,
181.16,76.996,-11.845,-6.3121,21.572,-3.3557,57.312,
182.16,77.271,-4.4049,4.5664,-0.8272,-0.056724,73.425,
182.16,77.271,-0.60434,-3.4699,-2.4572,6.3659,78.644,
182.16,77.271,16.329,-17.002,7.7147,-7.5559,100.89,
182.16,77.271,-7.1415,-8.0065,14.216,1.0692,59.875,
183.16,78.186,1.4267,-0.27214,-0.033137,-1.8945,99.792,
183.16,78.186,2.4587,-4.7537,-5.7766,8.0195,81.024,
183.16,78.186,13.841,7.3979,-12.271,-8.759,62.256,
183.16,78.186,10.608,-13.507,8.4297,-5.4469,100.8,
184.16,79.559,-4.239,3.5845,-1.1462,1.0363,48.889,
184.16,79.559,21.671,-24.424,12.377,-10.015,99.701,
184.16,79.559,10.755,5.6793,-19.95,3.4011,64.087,
184.16,79.559,-0.98432,-6.3159,-0.62977,7.9243,66.101,
185.16,80.383,-1.8173,1.7441,0.13487,-0.84064,66.193,
185.16,80.383,12.133,-12.123,4.5973,-4.6729,98.877,
185.16,80.383,3.5677,5.5552,-3.4179,-5.6621,65.46,
185.16,80.383,4.0171,-0.53666,-15.837,12.185,67.017,
186.16,80.841,4.3382,-4.1233,1.4582,-0.92612,65.369,
186.16,80.841,4.4753,-2.9754,-6.8301,5.1995,67.017,
186.16,80.841,17.864,-17.539,12.03,-12.801,98.328,
186.16,80.841,3.2203,5.6447,-3.7601,-5.0619,66.833,
187.16,81.207,4.0535,-3.6816,1.0432,-0.67854,64.819,
187.16,81.207,2.5323,-6.5127,-2.1657,5.9438,66.193,
187.16,81.207,16.637,-12.083,9.5655,-14.527,98.328,
187.16,81.207,5.1117,8.1213,-13.77,0.50386,68.848,
188.16,81.207,-3.8803,3.4718,-1.242,0.89051,64.728,
188.16,81.207,20.432,-18.17,8.3357,-11.001,97.595,
188.16,81.207,4.6646,-3.468,-7.4706,6.2131,68.573,
188.16,81.207,-2.7122,-5.8322,3.9673,4.5498,68.573,
189.16,80.841,-1.286,0.79551,-0.8174,0.5244,64.911,
189.16,80.841,-12.104,12.384,-6.4935,6.268,101.17,
189.16,80.841,3.6264,5.331,-3.4351,-5.5391,134.49,
189.16,80.841,5.3437,-2.9049,-8.9066,6.4796,68.756,
190.16,80.383,-1.9727,2.6193,-2.367,0.96515,65.002,
190.16,80.383,3.8814,0.38329,-8.8045,4.6491,68.665,
190.16,80.383,-22.449,21.027,-6.9786,8.6976,104.19,
190.16,80.383,2.5138,4.7195,-1.5578,-5.6254,133.12,
191.16,79.926,-2.516,1.9782,-0.096959,-0.14399,64.453,
191.16,79.926,1.8135,7.8456,-2.3588,-7.2392,131.65,
191.16,79.926,6.0614,-0.44684,-11.428,5.7552,69.122,
191.16,79.926,-28.686,21.516,-7.3822,14.708,104.74,
192.16,79.468,-2.3953,-0.25657,3.1907,0.22245,63.995,
192.16,79.468,11.577,-5.9499,-6.3827,0.9234,69.122,
192.16,79.468,3.3413,4.1113,0.66222,-8.0036,131.01,
192.16,79.468,14.414,-21.497,24.157,-17.263,80.658,
193.16,79.102,-2.0087,2.3342,-1.7503,0.627,62.531,
193.16,79.102,11.526,-7.0276,-6.7621,2.1901,91.095,
193.16,79.102,-12.098,27.11,-35.148,20.329,80.475,
193.16,79.102,-4.4315,-4.9787,0.079628,9.3315,130.37,
194.16,78.918,-0.83884,1.1195,-2.0124,0.94157,60.974,
194.16,78.918,-1.5702,-4.3989,0.59251,5.4257,129.36,
194.16,78.918,-13.387,25.215,-27.936,16.35,80.2,
194.16,78.918,10.212,-2.8976,-7.1649,-0.13205,59.509,
195.16,78.918,0.39619,-1.1325,2.6084,-1.0886,60.425,
195.16,78.918,9.4202,-3.6139,-5.1207,-0.62733,126.34,
195.16,78.918,-11.733,24.39,-28.178,15.785,80.658,
195.16,78.918,1.1586,4.1704,-0.31456,-5.0615,128.27,
196.16,79.285,0.51157,-1.4922,2.7393,-0.98346,60.516,
196.16,79.285,-10.236,23.407,-24.287,11.445,82.489,
196.16,79.285,9.2719,-3.3671,-5.4741,-0.37569,126.34,
196.16,79.285,1.9754,2.3861,1.4233,-5.8401,127.08,
197.16,79.834,0.85657,-1.9772,3.1885,-1.2932,61.157,
197.16,79.834,12.198,-23.916,24.482,-13.125,70.496,
197.16,79.834,8.2681,-2.021,-6.3641,0.17554,126.34,
197.16,79.834,1.3382,3.5427,0.37302,-5.2924,126.25,
198.16,80.383,0.49355,-0.41552,1.2577,-0.54374,61.981,
198.16,80.383,0.91118,4.1641,-0.12173,-5.0008,125.89,
198.16,80.383,8.6935,-2.7044,-5.995,0.034608,62.531,
198.16,80.383,-12.41,23.13,-24.624,14.105,70.953,
199.16,81.024,0.68812,-0.94913,1.7616,-0.71411,62.714,
199.16,81.024,2.0227,2.383,0.93757,-5.3921,126.34,
199.16,81.024,-11.935,23.427,-23.268,12.05,71.411,
199.16,81.024,8.1019,-2.7029,-5.7149,0.35483,61.89,
200.16,81.299,1.4508,-3.4716,2.9835,-1.737,64.27,
200.16,81.299,-6.2103,15.21,-18.159,9.0361,80.017,
200.16,81.299,-2.0413,-3.9421,-0.99185,7.0141,127.35,
200.16,81.299,11.273,-5.5241,-4.6238,-1.086,92.651,
201.16,81.207,0.353,1.2636,-2.3339,-0.078349,113.89,
201.16,81.207,11.289,-4.0936,-6.8363,-0.28137,105.56,
201.16,81.207,-2.6556,-2.8566,-1.8347,7.3165,130.92,
201.16,81.207,-16.881,36.882,-34.807,14.972,76.538,
202.16,80.75,-2.5386,1.3546,-0.99647,1.3932,46.143,
202.16,80.75,11.248,-4.7233,-6.3754,-0.2374,45.776,
202.16,80.75,-1.5356,-5.724,1.2995,6.0392,131.2,
202.16,80.75,-16.294,30.985,-33.99,19.537,79.285,
203.16,80.292,2.4024,-1.1693,0.0027471,-0.44999,119.57,
203.16,80.292,8.7571,-2.5932,-7.7057,1.4379,50.72,98.511
203.16,80.292,0.74386,4.1366,-0.28807,-4.6493,130.55,
203.16,80.292,-15.36,24.506,-21.871,12.953,79.834,
204.16,80.017,2.7172,-1.2777,-0.92193,0.28478,117.92,
204.16,80.017,19.651,-9.2048,-12.202,1.4976,97.687,
204.16,80.017,1.1517,3.7873,0.63492,-5.5973,119.29,
204.16,80.017,-12.043,23.973,-23.085,11.295,95.49,
205.16,80.566,4.6019,-2.3579,-2.3243,0.83118,116.18,
205.16,80.566,21.791,-9.0792,-14.583,1.3915,97.229,
205.16,80.566,2.3083,0.91308,1.5582,-4.7151,119.02,
205.16,80.566,-13.944,25.266,-23.505,12.442,79.926,
206.16,81.207,1.492,0.60489,-2.283,0.97978,112.15,
206.16,81.207,7.6799,-4.7499,-3.4743,0.38613,113.98,
206.16,81.207,-5.6398,13.663,-16.768,8.7468,80.566,
206.16,81.207,2.5018,2.5858,-1.162,-3.9667,113.98,
207.16,82.031,1.5735,-1.0828,0.71629,-0.42229,111.6,
207.16,82.031,5.6514,-1.0984,-6.6436,2.0363,116.36,
207.16,82.031,3.8198,-0.4044,2.196,-5.6738,112.24,123.69
207.16,82.031,-14.442,26.427,-24.582,12.849,81.573,
208.16,82.855,1.1964,-0.34961,-0.06086,0.00057083,95.673,
208.16,82.855,7.4582,-2.9475,-5.7223,1.1408,56.03,
208.16,82.855,2.7306,1.8914,-0.39951,-4.2672,60.516,
208.16,82.855,-4.6579,12.09,-15.785,8.4597,83.313,
209.16,83.679,1.9413,-0.67649,0.080375,-0.56268,94.025,
209.16,83.679,8.6803,-3.8299,-6.2297,1.2887,55.847,
209.16,83.679,2.7297,2.5904,-1.0547,-4.3617,61.798,
209.16,83.679,-5.2834,14.358,-19.07,10.109,83.588,
210.16,84.32,1.434,-0.40065,-0.30573,0.080368,88.44,
210.16,84.32,8.1442,-4.2014,-4.5548,0.51875,55.115,
210.16,84.32,2.578,2.5391,-1.4936,-3.6631,65.277,
210.16,84.32,-3.3334,10.605,-14.799,7.6058,84.137,
211.16,85.419,0.90184,0.52682,-1.0448,0.38876,85.785,
211.16,85.419,2.4317,0.079016,1.1421,-3.7924,66.101,
211.16,85.419,5.1971,-3.0734,-2.9906,0.76923,51.27,
211.16,85.419,-3.1935,7.4905,-9.8973,5.6115,84.137,
212.16,86.517,0.98459,1.4952,-4.0649,2.3651,83.954,
212.16,86.517,5.8563,-2.524,-4.6384,1.0717,45.868,
212.16,86.517,-3.2959,-0.91975,-2.0816,6.28,66.833,84.32
212.16,86.517,-12.94,31.777,-42.747,23.861,85.144,
213.16,87.067,0.66172,0.79384,-1.7606,1.1007,83.496,
213.16,87.067,6.3732,-3.0968,-3.3064,-0.091711,62.256,
213.16,87.067,2.1342,2.5684,-1.0336,-3.6595,118.93,
213.16,87.067,-10.347,26.991,-36.098,19.534,86.884,
214.16,87.341,2.005,-1.8841,1.4533,-0.81609,81.665,
214.16,87.341,5.8675,-2.1493,-5.6598,1.8161,104.74,
214.16,87.341,3.6495,-0.25235,2.0209,-5.4551,118.84,
214.16,87.341,-9.7601,23.811,-31.908,18.263,85.144,
215.16,87.433,0.9353,0.40414,-1.256,0.70132,80.475,
215.16,87.433,0.86927,-3.1905,-1.5571,3.7945,82.306,
215.16,87.433,6.9083,-0.84669,-2.3758,-3.8004,117.65,
215.16,87.433,9.0254,-22.941,32.208,-18.373,87.433,
216.16,86.975,0.96764,0.20937,-0.35101,-0.04817,78.369,
216.16,86.975,7.4521,-0.14828,-3.6658,-3.7405,116.36,
216.16,86.975,1.2087,-3.9382,-1.9259,4.6521,79.651,
216.16,86.975,-15.505,21.928,-27.598,21.23,86.792,
217.16,86.243,-1.0153,-0.70059,1.8895,-0.94546,75.897,
217.16,86.243,-7.7297,0.94057,5.656,1.2829,114.26,
217.16,86.243,-0.58945,-3.8938,-1.5524,6.0165,76.538,
217.16,86.243,14.702,-21.401,27.153,-20.425,86.975,
218.16,85.236,2.4504,-0.56323,0.31543,-1.4435,75.073,
218.16,85.236,9.2371,-2.2283,-4.861,-2.3124,114.9,
218.16,85.236,-0.71506,-3.8775,-0.85426,5.5313,75.623,
218.16,85.236,-13.585,23.592,-31.706,21.878,87.25,
219.16,83.954,-2.5789,-0.15085,1.4592,0.51406,74.799,
219.16,83.954,10.633,-2.4452,-3.3668,-5.0295,115.17,
219.16,83.954,1.0371,-4.8364,-2.132,5.9313,74.341,
219.16,83.954,14.468,-29.038,35.905,-21.34,85.693,
220.16,82.947,-2.8843,0.9835,1.1019,0.041886,74.158,
220.16,82.947,11.425,-2.6335,-4.1149,-4.8765,115.26,
220.16,82.947,0.10319,-4.8727,-2.2946,6.9838,74.524,
220.16,82.947,15.553,-30.704,37.49,-22.383,79.926,
221.16,81.848,2.7667,-1.8738,0.27306,-0.40388,73.517,
221.16,81.848,1.862,-5.0627,-1.5431,4.6286,74.158,
221.16,81.848,10.054,-1.6014,-3.6401,-4.9892,115.45,
221.16,81.848,-18.019,39.358,-48.073,26.902,80.933,
222.16,80.933,-2.1457,0.95359,0.094236,0.33516,73.7,
222.16,80.933,4.822,-7.7733,-0.26847,3.1356,73.7,
222.16,80.933,10.703,11.867,-24.406,1.7083,79.926,
222.16,80.933,29.015,-29.888,32.344,-31.583,79.926,
223.16,80.2,0.63113,-0.70472,-0.09581,-0.60123,73.7,
223.16,80.2,-2.8045,6.3568,1.8236,-5.4058,73.883,
223.16,80.2,16.898,6.7303,-19.736,-3.8282,53.833,
223.16,80.2,26.143,-30.215,33.869,-29.791,81.482,
224.16,79.834,-1.043,-0.81201,1.4635,1.1579,74.158,
224.16,79.834,4.6507,-7.444,-1.166,3.9245,73.517,
224.16,79.834,-15.192,-11.911,23.622,3.276,53.284,
224.16,79.834,22.877,-22.509,26.75,-27.098,64.453,
225.16,79.834,0.34065,0.56836,-2.4131,0.74531,74.707,
225.16,79.834,-5.159,5.7429,2.0476,-2.7397,74.89,
225.16,79.834,8.6855,-15.2,19.432,-13.013,80.566,
225.16,79.834,17.234,5.87,-8.9516,-14.05,68.573,
226.16,79.834,-0.36163,2.8853,-3.9492,0.66837,75.256,
226.16,79.834,12.206,-17.91,20.768,-15.184,70.038,
226.16,79.834,17.401,10.548,-21.391,-6.3299,57.953,
226.16,79.834,-3.5561,5.0035,3.9166,-5.3334,74.615,
227.16,79.926,1.0234,0.017078,-0.36316,-1.4493,75.165,
227.16,79.926,-4.056,6.8847,1.5043,-4.2974,75.256,
227.16,79.926,17.48,5.224,-15.179,-7.3687,58.411,
227.16,79.926,22.099,-30.389,36.303,-28.012,79.559,
228.16,80.109,0.25664,1.7298,-1.6124,-1.1353,75.989,
228.16,80.109,-4.4647,6.2882,2.1961,-3.9046,75.714,
228.16,80.109,17.98,7.1005,-16.815,-8.0632,58.411,
228.16,80.109,22.41,-34.02,41.054,-29.531,78.369,
229.16,80.292,-1.9028,1.8083,-0.64573,-0.028307,92.926,
229.16,80.292,1.3904,-4.0825,-4.7475,7.3176,117.92,
229.16,80.292,12.939,-16.589,19.167,-15.608,77.637,
229.16,80.292,13.462,10.013,-22.055,-1.4912,80.2,
230.16,80.2,0.5305,-1.9668,0.93567,1.2525,76.355,
230.16,80.2,-2.061,3.6019,3.9193,-5.2562,117.55,
230.16,80.2,-14.623,-8.0686,15.573,6.9957,67.2,
230.16,80.2,-10.605,14.719,-16.845,12.791,78.552,
231.16,80.383,0.57138,2.2367,-2.8314,-0.72347,75.714,
231.16,80.383,-3.6684,-1.4141,-5.0377,9.9661,118.74,
231.16,80.383,10.708,-2.981,-8.0462,0.40408,50.537,
231.16,80.383,12.378,-27.784,33.034,-17.889,78.552,
232.16,80.475,-1.1468,2.9055,-2.6758,0.15675,73.883,
232.16,80.475,-2.1794,-4.5322,-1.2697,7.8318,73.608,
232.16,80.475,-12.923,24.453,-36.727,25.458,79.926,
232.16,80.475,13.197,-5.3851,-6.5519,-1.282,86.609,
233.16,80.383,-0.98781,1.5044,-1.4584,0.15895,73.7,
233.16,80.383,13.136,-8.632,-4.2986,-0.25763,107.48,
233.16,80.383,-6.1186,-14.703,15.517,5.1942,74.524,
233.16,80.383,-11.296,19.734,-35.973,27.656,81.207,
234.16,80.933,0.09439,0.36808,1.3986,-1.1058,73.975,
234.16,80.933,-2.1907,4.1787,1.6765,-3.8326,74.982,
234.16,80.933,-7.8446,-0.96336,5.2531,3.5635,72.052,
234.16,80.933,-11.307,24.06,-32.067,19.48,80.658,
235.16,81.482,3.3024,-3.8316,1.9693,-0.7112,75.348,
235.16,81.482,3.2351,12.835,-10.187,-5.5568,75.165,
235.16,81.482,23.182,-7.5518,-17.604,1.7066,70.862,
235.16,81.482,11.624,-19.323,30.544,-23.11,80.383,
236.16,81.848,-2.326,1.5084,-0.17881,0.23471,76.08,
236.16,81.848,24.187,-10.422,-15.65,1.7006,71.32,
236.16,81.848,-13.571,25.312,-33.906,22.315,81.299,
236.16,81.848,-6.078,-7.5473,1.1636,12.452,76.721,
237.16,82.123,-0.61305,0.28831,0.24897,-0.69825,76.172,
237.16,82.123,13.473,-5.1216,-10.08,1.6989,72.601,
237.16,82.123,-7.0879,-8.9606,4.7267,11.24,76.996,
237.16,82.123,-13.586,25.981,-31.966,19.619,81.665,
238.16,82.123,-3.6545,0.22383,4.508,-1.8132,75.989,
238.16,82.123,24.3,-10.138,-8.4221,-6.1262,68.848,
238.16,82.123,-0.33613,0.83078,-17.882,17.107,79.01,
238.16,82.123,-3.346,22.074,-28.022,9.2197,91.919,
239.16,81.757,-1.9772,-1.1124,3.1203,-0.79239,75.989,
239.16,81.757,21.338,-4.8811,-17.774,1.0287,81.482,
239.16,81.757,-1.8121,-4.4935,-0.27096,6.6252,119.48,
239.16,81.757,-13.822,23.626,-25.075,15.167,81.94,
240.16,81.116,-1.2257,-0.4494,0.82565,0.067173,76.172,
240.16,81.116,-0.3607,-5.0257,-0.61141,6.0555,120.39,
240.16,81.116,22.493,-5.4334,-17.919,0.75383,84.137,
240.16,81.116,-13.161,25.334,-27.327,15.176,82.031,
241.16,80.475,0.60807,-0.53919,-0.82583,1.5479,75.897,
241.16,80.475,7.9245,-9.092,-1.2516,2.3246,77.179,
241.16,80.475,5.608,0.87646,-5.0418,-1.442,48.981,
241.16,80.475,19.161,-17.568,20.797,-22.283,82.489,
242.16,79.559,0.48839,-0.28663,-0.25117,0.83126,73.425,
242.16,79.559,5.4757,-8.063,-2.5422,5.0649,101.99,
242.16,79.559,5.5836,0.34022,-4.2842,-1.6474,50.354,
242.16,79.559,17.632,-18.855,14.986,-13.694,81.024,
243.16,78.827,4.5168,-4.8103,2.9454,-3.3749,76.904,
243.16,78.827,10.259,-11.631,4.1724,-2.4711,81.39,
243.16,78.827,-3.6088,-5.0539,5.6048,3.001,51.086,
243.16,78.827,3.6716,-3.5677,-17.09,16.766,73.151,
244.16,78.186,1.4816,-2.0352,0.22344,-0.45447,66.742,
244.16,78.186,-7.4356,6.8518,5.3981,-4.9004,51.086,
244.16,78.186,-14.558,20.772,-21.195,14.864,77.728,
244.16,78.186,6.6346,1.1183,-2.3587,-5.3899,66.01,
245.16,77.454,-0.70625,0.74616,-1.3054,0.48094,66.284,
245.16,77.454,10.382,-11.986,5.4453,-3.9145,76.355,
245.16,77.454,3.6727,-2.8104,-7.7181,6.9196,76.08,
245.16,77.454,-2.7941,-4.1835,3.4107,3.5428,65.46,
246.16,76.172,0.32648,-0.052867,0.69373,-0.17792,65.277,
246.16,76.172,2.6162,3.5094,-3.0947,-3.0281,65.277,
246.16,76.172,2.7014,-2.5525,-6.5952,6.4864,76.263,
246.16,76.172,10.138,-11.837,5.0636,-3.3827,75.714,
247.16,74.799,0.56246,-0.13819,-0.2691,0.63593,65.186,
247.16,74.799,3.3517,-3.7815,-6.6004,6.9814,76.263,
247.16,74.799,2.6821,3.9308,-4.3094,-2.3074,65.186,
247.16,74.799,8.9811,-10.625,5.9912,-4.3432,75.256,
248.16,73.7,0.16451,0.17168,0.36617,0.084417,64.819,
248.16,73.7,2.5139,3.3216,-3.6316,-2.1993,64.545,
248.16,73.7,2.3531,-3.7582,-5.1286,6.55,53.101,
248.16,73.7,9.7989,-11.539,5.9264,-4.1751,73.517,
249.16,72.876,-1.5724,1.5004,-0.85613,0.15024,64.636,
249.16,72.876,9.5691,-11.301,6.6926,-5.0736,71.411,
249.16,72.876,-2.8341,-3.4249,1.5788,4.6552,64.911,
249.16,72.876,7.8812,-4.1644,-13.757,9.9916,53.101,
250.16,72.418,0.069095,0.26273,0.80892,-0.35861,65.094,
250.16,72.418,2.7527,-4.0742,-4.723,6.1053,133.21,
250.16,72.418,1.8704,3.0034,-4.3306,-0.51531,47.241,
250.16,72.418,10.145,-10.429,6.1094,-5.8304,70.496,
251.16,72.144,4.6697,-4.5141,2.4658,-1.8792,65.277,
251.16,72.144,9.3425,-13.667,10.236,-6.1778,72.144,
251.16,72.144,-3.3924,-4.6871,0.88405,7.2504,61.523,
251.16,72.144,-11.863,3.4977,17.505,-8.9815,65.46,
252.16,71.686,-0.11027,-0.45386,-0.0070341,-0.21303,64.453,
252.16,71.686,-0.59727,-5.3756,0.2371,5.7479,131.2,
252.16,71.686,-6.9583,13.024,-15.219,9.1963,70.496,
252.16,71.686,16.186,-3.3785,-15.212,2.3934,63.629,
253.16,72.052,-2.1541,2.7244,-2.6513,1.2831,63.08,
253.16,72.052,-6.3278,16.089,-21.433,11.766,72.052,
253.16,72.052,-10.221,8.7506,2.1181,-0.571,130.92,
253.16,72.052,-4.3778,-3.8161,0.10112,8.1104,129.91,
254.16,72.144,1.7974,-2.3951,3.8839,-2.5181,61.066,
254.16,72.144,2.4259,2.6787,0.095892,-5.3359,128.63,
254.16,72.144,-11.951,25.294,-28.792,15.822,73.059,
254.16,72.144,8.133,-5.0454,-2.9694,-0.089935,60.425,
255.16,73.151,1.0428,-1.3587,3.2269,-2.1436,60.242,
255.16,73.151,-1.8061,-2.6103,-0.90571,5.481,127.62,
255.16,73.151,-11.746,24.708,-26.824,14.16,74.341,
255.16,73.151,8.1053,-4.4727,-2.3514,-1.2194,60.15,
256.16,74.524,0.0721,0.35506,1.6474,-1.2949,60.242,
256.16,74.524,-1.6423,-3.6902,1.0256,4.4412,126.53,
256.16,74.524,7.802,-5.4296,-1.3479,-0.91661,59.143,
256.16,74.524,-7.6239,13.712,-15.794,9.7973,75.165,
257.16,75.897,0.29617,-0.49804,2.7065,-1.7304,60.791,
257.16,75.897,6.3728,-4.2433,-2.7845,0.8248,126.07,
257.16,75.897,-7.9382,11.788,-11.76,8.032,76.447,
257.16,75.897,-2.7506,-2.5875,0.54083,4.8821,125.98,
258.16,76.904,0.49166,-0.61834,3.0862,-2.1926,61.615,
258.16,76.904,7.7291,-5.2956,-1.8996,-0.39864,125.98,
258.16,76.904,-2.5534,-2.2239,-0.22285,5.1333,125.98,
258.16,76.904,-13.232,22.866,-26.102,16.751,76.355,
259.16,77.82,0.99759,-1.8743,4.5328,-2.9069,62.531,
259.16,77.82,7.7905,-5.8301,-1.1888,-0.62274,54.749,
259.16,77.82,-11.312,20.004,-22.318,14.099,48.34,
259.16,77.82,-2.4062,-2.7172,0.58834,4.6439,126.62,
260.16,78.094,-0.71063,1.0845,-3.5364,2.3994,63.995,
260.16,78.094,-2.4454,-4.0486,0.63619,5.9653,127.53,
260.16,78.094,9.6519,-6.34,-2.3614,-0.8517,72.327,
260.16,78.094,14.273,-25.693,30.22,-19.074,48.981,
261.16,78.186,1.046,-0.5377,-1.253,-0.051259,98.602,
261.16,78.186,10.27,-5.905,-3.8106,-0.44801,71.686,
261.16,78.186,-1.687,-5.1539,0.87972,5.9601,130.55,
261.16,78.186,8.8323,-15.247,16.142,-9.7569,47.424,
262.16,77.911,2.5423,-4,5.7425,-3.5139,78.461,
262.16,77.911,-3.0736,-2.2344,-2.7579,8.1956,130.74,
262.16,77.911,-17.534,34.485,-33.124,16.532,49.896,
262.16,77.911,9.8698,-5.0524,-4.53,-0.24578,70.862,
263.16,78.003,0.77037,-1.0242,3.5731,-2.5502,98.053,
263.16,78.003,2.2546,1.6215,1.552,-5.6147,130.37,
263.16,78.003,8.6729,-3.9608,-6.7585,2.1592,70.313,
263.16,78.003,-16.418,26.425,-23.479,13.713,78.369,
264.16,78.094,-0.052233,-0.74104,4.0182,-2.4559,99.518,
264.16,78.094,7.9608,-3.4946,-7.9987,3.7419,70.404,
264.16,78.094,2.8766,2.6081,-0.074385,-5.5021,115.54,
264.16,78.094,21.334,-27.704,18.619,-12.467,51.361,
265.16,78.094,0.23237,-1.8518,5.2688,-2.9076,99.243,
265.16,78.094,-10.431,3.3633,7.8443,-0.9586,120.57,
265.16,78.094,3.4437,0.66946,3.9176,-8.1919,115.54,
265.16,78.094,-19.661,31.697,-24.231,12.475,79.559,
266.16,78.369,-1.4133,1.4609,-3.0943,2.2732,98.145,
266.16,78.369,-1.3411,-2.8246,-2.6855,7.0103,115.17,
266.16,78.369,-19.2,29.513,-23.209,13.121,110.6,
266.16,78.369,19.951,-5.8207,-16.815,2.7355,122.41,
267.16,78.094,1.461,-1.4249,2.9935,-2.2602,96.771,
267.16,78.094,2.1116,3.672,0.51335,-6.4522,114.44,
267.16,78.094,26.5,-30.663,15.943,-11.992,112.24,
267.16,78.094,15.167,3.5371,-24.302,5.751,77.728,
268.16,77.545,2.1072,-2.641,4.2037,-2.9133,95.856,
268.16,77.545,1.4007,3.9383,1.1938,-6.702,113.71,
268.16,77.545,24.927,-31.207,17.144,-11.192,85.236,
268.16,77.545,-18.511,2.9929,17.966,-2.6306,63.721,
269.16,76.447,1.609,-1.5082,4.1854,-3.5365,95.306,
269.16,76.447,0.93773,4.2196,1.9456,-7.328,113.71,
269.16,76.447,-29.549,32.458,-16.163,13.494,87.341,
269.16,76.447,-17.297,-4.6313,28.164,-6.4353,75.806,
270.16,75.989,-1.6375,2.357,-3.8585,2.3509,96.039,
270.16,75.989,-1.1105,-3.3593,-1.9399,6.5437,114.53,
270.16,75.989,11.651,7.1924,-26.082,7.4674,74.524,
270.16,75.989,27.531,-28.01,7.0637,-6.8336,86.609,
271.16,75.714,2.0281,-1.464,1.4149,-1.2175,85.968,
271.16,75.714,3.0569,1.8932,-0.86518,-4.2049,83.679,
271.16,75.714,-17.508,21.75,-15.452,11.487,74.615,
271.16,75.714,7.4355,-2.5134,-8.4856,3.5557,74.982,
272.16,75.897,4.1,-2.8009,1.7722,-2.3062,84.686,
272.16,75.897,7.5147,-3.6682,-4.8743,0.76544,118.74,
272.16,75.897,14.577,-22.989,29.677,-21.462,76.172,
272.16,75.897,-4.2509,-12.703,2.5028,14.538,83.771,
273.16,76.538,-1.991,2.6494,-2.7671,1.3222,83.679,
273.16,76.538,13.052,-20.406,23.974,-16.872,77.271,
273.16,76.538,6.8473,-4.8101,-3.316,1.2007,119.29,
273.16,76.538,-3.439,-3.478,0.91741,5.9577,117.46,
274.16,76.996,2.1419,-1.6331,0.66699,-0.40383,82.123,
274.16,76.996,7.6686,-3.6084,-4.4643,0.24609,119.66,
274.16,76.996,-2.5688,-4.4137,0.070747,6.8876,117.28,
274.16,76.996,15.028,-23.768,28.001,-19.349,77.911,
275.16,77.637,2.9994,-3.062,2.5957,-1.7717,79.376,
275.16,77.637,6.1262,-4.1514,-4.2422,2.1145,86.792,
275.16,77.637,-13.697,19.679,-24.589,18.901,77.728,
275.16,77.637,-2.1983,-4.3888,2.6502,3.9366,80.2,
276.16,78.461,-3.6718,3.2138,-2.7993,2.5012,76.263,
276.16,78.461,6.2411,-7.026,-1.4823,2.1106,84.045,
276.16,78.461,13.875,-13.46,18.557,-19.291,116.82,
276.16,78.461,3.1694,3.9677,-4.5129,-2.6563,78.827,
277.16,79.376,-3.211,2.6423,-2.2806,2.087,74.799,
277.16,79.376,5.4084,-5.3959,-3.4766,3.3297,71.777,
277.16,79.376,13.091,-16.212,20.307,-17.481,79.742,
277.16,79.376,3.4392,4.1806,-3.93,-3.7586,78.186,
278.16,80.933,-3.5657,2.2551,-2.3012,2.8644,74.341,
278.16,80.933,7.5654,-4.0359,-4.2024,0.50262,95.947,
278.16,80.933,-2.3606,-3.6421,-0.27176,6.4175,74.615,
278.16,80.933,12.338,-20.917,26.432,-18.111,79.742,
279.16,82.764,-3.5114,2.8931,-2.6197,2.4737,74.066,
279.16,82.764,7.7386,-6.8664,-3.381,2.3661,93.933,
279.16,82.764,13.667,-20.308,29.198,-22.813,80.75,
279.16,82.764,-4.135,-4.6162,3.2399,5.5887,76.355,
280.16,83.862,-3.2185,2.7794,-1.2135,0.88723,73.883,
280.16,83.862,-8.5964,7.1324,3.9699,-2.321,93.018,
280.16,83.862,-15.908,21.361,-32.184,26.851,82.306,
280.16,83.862,-4.5204,-4.1964,2.0722,6.6548,75.073,
281.16,84.412,-3.2145,2.9898,-0.46138,-0.064323,73.608,
281.16,84.412,8.4137,-6.9992,-3.0868,1.4134,44.495,
281.16,84.412,-5.0776,-3.5111,1.5695,7.0081,74.615,
281.16,84.412,16.963,-24.914,38.316,-30.441,83.588,
282.16,84.32,-5.2581,2.8243,-1.1285,2.8325,74.249,
282.16,84.32,9.1457,-7.5497,-4.3666,2.5735,74.89,
282.16,84.32,-20.255,15.86,-23.555,28.27,84.045,
282.16,84.32,2.4796,-18.546,19.423,-3.2031,70.953,
283.16,83.221,5.148,-2.8545,0.49109,-2.0501,74.158,
283.16,83.221,8.4866,-4.9215,-7.0353,3.2525,68.115,
283.16,83.221,11.482,-10.739,13.712,-14.612,84.229,
283.16,83.221,2.8132,15.235,-11.684,-6.4352,71.869,
284.16,81.665,-2.5007,2.149,0.8539,-1.2491,74.432,
284.16,81.665,8.9773,-6.5528,-5.2013,2.5659,73.975,
284.16,81.665,0.88138,-18.859,19.042,-1.1543,71.777,
284.16,81.665,20.745,-16.361,22.483,-26.851,133.58,
285.16,80.475,0.54052,-2.8536,2.2677,-0.70684,74.341,
285.16,80.475,4.5638,-7.3274,-1.2309,4.1133,74.982,
285.16,80.475,11.595,6.9823,-14.826,-3.9348,71.686,
285.16,80.475,17.872,-19.755,25.589,-23.562,81.665,
286.16,79.834,-1.8951,-0.084266,1.2917,-0.078143,74.89,
286.16,79.834,-10.627,3.1852,4.8069,2.7629,73.792,
286.16,79.834,-0.083856,-6.761,0.23915,6.6199,74.158,
286.16,79.834,13.755,-24.075,32.846,-22.509,79.926,
287.16,80.109,1.4134,0.5085,-2.2658,1.1117,75.623,
287.16,80.109,12.268,-5.1948,-2.5977,-4.6057,75.623,
287.16,80.109,-1.6425,-4.5603,-2.2414,8.4294,74.249,
287.16,80.109,-13.778,24.695,-32.417,21.385,79.834,
288.16,81.024,0.15667,-2.0401,3.5622,-2.4452,76.172,
288.16,81.024,15.223,-28.037,37.571,-24.55,68.481,
288.16,81.024,12.697,-4.116,-2.353,-6.286,76.08,
288.16,81.024,0.29588,-5.695,-2.3259,7.6973,75.439,
289.16,82.489,-0.38975,-0.54683,-1.1119,2.8093,76.263,92.743
289.16,82.489,-2.0575,-4.5811,-0.43732,6.876,76.904,
289.16,82.489,9.6445,-3.853,-4.2536,-1.5605,76.447,
289.16,82.489,16.298,-23.793,33.104,-25.592,70.496,
290.16,84.045,-0.56488,-0.45225,2.7,-2.4464,75.897,
290.16,84.045,-0.32649,-4.3017,-1.9406,6.4091,77.362,
290.16,84.045,9.5633,-0.53055,-6.6172,-2.4988,118.38,
290.16,84.045,16.405,-27.8,35.705,-24.277,71.32,
291.16,84.503,-0.19473,-1.2035,3.0516,-2.4211,74.707,
291.16,84.503,10.125,-3.753,-4.7773,-1.6812,76.355,
291.16,84.503,-2.1955,-4.0952,-2.4943,8.7319,76.996,
291.16,84.503,15.874,-26.486,34.368,-23.6,71.136,
292.16,84.229,-0.62202,1.0293,0.53797,-1.7176,74.432,
292.16,84.229,-0.91622,-5.5871,0.40745,5.9346,74.615,
292.16,84.229,-14.359,4.6211,6.4097,3.3698,75.897,
292.16,84.229,-10.547,27.264,-42.579,25.941,61.707,
293.16,83.313,2.0926,0.32376,-3.1706,1.5367,73.975,
293.16,83.313,11.919,-5.1795,-6.6028,-0.26799,74.799,
293.16,83.313,2.218,3.223,2.5783,-8.0105,74.615,
293.16,83.313,8.9699,-28.436,46.615,-27.124,61.89,
294.16,81.573,1.8662,0.50596,0.64514,-2.2896,73.792,
294.16,81.573,0.65831,-2.0672,-4.1424,5.8139,74.066,
294.16,81.573,10.348,-2.3838,-3.3742,-4.7252,76.447,
294.16,81.573,7.733,-23.128,36.946,-21.715,111.88,
295.16,80.109,-4.5491,1.4915,-0.41469,2.7455,74.249,
295.16,80.109,-1.2846,-3.2086,-3.1866,7.8602,75.165,
295.16,80.109,20.81,-7.4639,-12.348,-1.3934,52.185,
295.16,80.109,-3.6295,11.175,-17.665,10.232,79.742,
296.16,79.102,-3.2349,0.83456,-0.22212,1.8747,75.256,
296.16,79.102,-0.29076,-5.7872,0.65199,5.5487,75.623,
296.16,79.102,16.001,-1.7055,-19.224,4.6957,52.734,
296.16,79.102,-16.682,24.397,-33.181,25.716,80.017,
297.16,78.552,-2.8981,-0.75621,2.9758,-0.077508,76.263,
297.16,78.552,18.318,-5.4555,-13.401,0.21408,52.185,
297.16,78.552,-0.56483,-5.972,1.1032,5.5475,76.263,
297.16,78.552,-6.1506,13.9,-21.398,13.659,80.75,
298.16,78.461,-5.0432,1.1381,1.3614,1.8414,76.263,
298.16,78.461,4.1961,2.7504,-10.905,3.6899,47.424,
298.16,78.461,17.792,-18.269,17.133,-17.091,78.644,
298.16,78.461,0.36417,-5.4865,0.21404,5.0133,76.904,
299.16,79.468,1.0692,2.1114,-2.9669,0.5458,76.813,
299.16,79.468,0.46881,-6.2145,0.94356,4.9466,77.362,
299.16,79.468,-4.8898,10.661,-15.998,10.136,80.658,
299.16,79.468,19.017,-9.0629,-5.7148,-4.4232,57.404,
