Time(mS),ppg,LPF1,LPF2,LPF3,LPF4
0,3.157,17986,13366,20149,11988
20,3.6,17987,13367,20153,11993
40,3.946,17987,13367,20157,11998
60,3.981,17987,13368,20160,12002
80,3.86,17987,13369,20163,12006
100,3.645,17987,13369,20165,12009
120,3.382,17987,13369,20167,12011
140,3.158,17986,13369,20168,12013
160,2.985,17985,13369,20169,12015
180,2.903,17983,13368,20169,12015
200,2.828,17981,13366,20169,12015
220,2.758,17979,13363,20169,12015
240,2.709,17976,13360,20169,12014
260,2.675,17972,13356,20169,12013
280,2.717,17968,13351,20168,12012
300,2.762,17963,13345,20167,12010
320,2.79,17958,13338,20165,12007
340,2.852,17952,13329,20163,12004
360,2.901,17945,13319,20159,11999
380,2.903,17938,13307,20154,11994
400,2.87,17929,13293,20148,11988
420,2.817,17920,13277,20140,11981
440,2.741,17909,13258,20129,11972
460,2.649,17898,13238,20116,11963
480,2.649,17886,13216,20101,11952
500,2.594,17874,13193,20084,11941
520,2.601,17861,13168,20066,11930
540,2.601,17847,13143,20046,11918
560,2.642,17834,13118,20026,11906
580,2.638,17821,13093,20005,11895
600,2.661,17809,13069,19985,11884
620,2.666,17798,13046,19966,11874
640,2.659,17787,13025,19947,11865
660,2.724,17777,13005,19930,11857
680,3.007,17768,12987,19915,11851
700,3.527,17759,12970,19901,11845
720,3.972,17751,12956,19890,11840
740,3.993,17744,12943,19879,11837
760,4.003,17737,12931,19870,11835
780,3.96,17731,12921,19863,11833
800,3.753,17725,12911,19856,11832
820,3.458,17719,12902,19850,11831
840,3.169,17713,12894,19844,11830
860,3.034,17708,12887,19839,11830
880,2.908,17702,12880,19834,11830
900,2.856,17697,12873,19829,11829
920,2.808,17692,12866,19824,11828
940,2.755,17687,12860,19819,11827
960,2.726,17683,12854,19814,11825
980,2.754,17678,12848,19809,11823
1000,2.814,17674,12842,19804,11821
1020,2.885,17670,12837,19799,11819
1040,2.905,17667,12832,19795,11816
1060,2.88,17663,12827,19791,11813
1080,2.849,17659,12822,19787,11810
1100,2.804,17656,12817,19783,11806
1120,2.77,17652,12812,19780,11803
1140,2.689,17648,12807,19776,11800
1160,2.649,17644,12801,19773,11797
1180,2.625,17640,12796,19770,11795
1200,2.562,17635,12790,19767,11792
1220,2.61,17630,12784,19764,11790
1240,2.612,17625,12777,19760,11788
1260,2.629,17620,12769,19756,11786
1280,2.647,17614,12761,19752,11785
1300,2.618,17608,12752,19748,11783
1320,2.633,17602,12743,19743,11782
1340,2.684,17596,12732,19737,11780
1360,2.945,17589,12720,19731,11779
1380,3.431,17582,12708,19724,11777
1400,3.876,17576,12695,19716,11775
1420,3.993,17569,12682,19708,11773
1440,3.993,17562,12668,19700,11770
1460,3.949,17556,12655,19691,11768
1480,3.733,17549,12642,19683,11765
1500,3.442,17543,12629,19674,11762
1520,3.186,17538,12617,19666,11759
1540,3,17532,12606,19658,11756
1560,2.92,17527,12597,19652,11753
1580,2.836,17523,12588,19646,11751
1600,2.786,17519,12581,19641,11749
1620,2.74,17516,12575,19637,11747
1640,2.738,17513,12571,19635,11746
1660,2.727,17511,12567,19633,11745
1680,2.79,17510,12565,19633,11745
1700,2.84,17508,12563,19634,11746
1720,2.878,17508,12562,19635,11747
1740,2.888,17507,12562,19638,11748
1760,2.874,17507,12563,19641,11750
1780,2.829,17507,12563,19644,11752
1800,2.755,17507,12564,19647,11754
1820,2.719,17507,12565,19651,11756
1840,2.646,17507,12566,19654,11757
1860,2.638,17507,12567,19658,11759
1880,2.607,17507,12568,19661,11761
1900,2.562,17507,12569,19664,11762
1920,2.583,17506,12569,19667,11763
1940,2.594,17506,12570,19670,11763
1960,2.626,17506,12571,19672,11764
1980,2.654,17506,12571,19675,11764
2000,2.6,17506,12571,19677,11764
2020,2.628,17505,12571,19678,11764
2040,2.726,17505,12571,19680,11763
2060,3.108,17505,12571,19681,11763
2080,3.6,17504,12570,19682,11762
2100,3.978,17503,12570,19683,11762
2120,3.992,17503,12570,19683,11762
2140,3.991,17502,12570,19683,11762
2160,3.826,17501,12570,19682,11761
2180,3.553,17500,12569,19682,11761
2200,3.287,17499,12569,19681,11762
2220,3.075,17499,12570,19680,11762
2240,2.945,17498,12570,19679,11762
2260,2.847,17497,12570,19679,11763
2280,2.766,17497,12571,19678,11763
2300,2.674,17496,12571,19678,11764
2320,2.675,17496,12572,19677,11764
2340,2.695,17496,12572,19677,11765
2360,2.72,17496,12573,19678,11766
2380,2.79,17496,12574,19678,11766
2400,2.838,17496,12575,19679,11767
2420,2.867,17496,12575,19680,11767
2440,2.854,17496,12576,19681,11767
2460,2.777,17497,12577,19683,11768
2480,2.703,17497,12578,19684,11768
2500,2.642,17497,12579,19686,11768
2520,2.607,17497,12579,19687,11768
2540,2.589,17498,12580,19689,11768
2560,2.524,17498,12580,19691,11768
2580,2.559,17498,12581,19692,11768
2600,2.548,17498,12581,19693,11768
2620,2.565,17499,12581,19695,11768
2640,2.593,17499,12582,19696,11769
2660,2.58,17499,12582,19697,11769
2680,2.601,17499,12582,19699,11770
2700,2.555,17499,12582,19700,11771
2720,2.584,17500,12582,19701,11771
2740,2.737,17500,12581,19702,11772
2760,3.085,17500,12581,19703,11773
2780,3.541,17500,12581,19703,11774
2800,3.877,17500,12580,19703,11775
2820,3.964,17501,12579,19703,11776
2840,3.848,17501,12579,19703,11777
2860,3.599,17500,12578,19702,11778
2880,3.344,17500,12577,19701,11778
2900,3.087,17500,12576,19699,11779
2920,2.887,17500,12575,19698,11779
2940,2.773,17499,12575,19696,11779
2960,2.691,17499,12574,19695,11779
2980,2.6,17498,12574,19693,11779
3000,2.584,17498,12574,19692,11779
3020,2.6,17497,12574,19691,11778
3040,2.656,17497,12575,19690,11778
3060,2.723,17497,12575,19689,11777
3080,2.775,17497,12576,19689,11776
3100,2.831,17497,12577,19689,11776
3120,2.833,17497,12578,19689,11775
3140,2.819,17497,12579,19689,11774
3160,2.763,17497,12579,19690,11773
3180,2.712,17497,12580,19690,11772
3200,2.668,17497,12581,19691,11771
3220,2.59,17498,12582,19692,11770
3240,2.563,17498,12582,19693,11769
3260,2.565,17498,12583,19694,11768
3280,2.524,17498,12583,19695,11767
3300,2.523,17498,12584,19696,11767
3320,2.565,17498,12584,19698,11766
3340,2.582,17498,12584,19699,11766
3360,2.587,17498,12584,19700,11766
3380,2.562,17499,12585,19701,11766
3400,2.568,17499,12585,19703,11766
3420,2.59,17500,12585,19703,11766
3440,2.747,17501,12586,19704,11767
3460,3.141,17502,12586,19704,11767
3480,3.604,17503,12587,19704,11768
3500,3.918,17504,12588,19704,11769
3520,3.943,17506,12588,19703,11770
3540,3.809,17508,12589,19702,11771
3560,3.575,17510,12590,19701,11772
3580,3.322,17513,12592,19699,11773
3600,3.06,17515,12593,19698,11774
3620,2.888,17518,12594,19696,11775
3640,2.769,17521,12596,19694,11776
3660,2.692,17525,12598,19692,11777
3680,2.632,17528,12600,19690,11778
3700,2.59,17531,12602,19688,11779
3720,2.607,17535,12604,19687,11780
3740,2.696,17539,12606,19685,11781
3760,2.779,17543,12609,19685,11782
3780,2.807,17547,12611,19684,11783
3800,2.84,17550,12614,19684,11783
3820,2.835,17554,12617,19684,11784
3840,2.828,17558,12619,19684,11785
3860,2.768,17562,12622,19684,11786
3880,2.675,17566,12625,19684,11786
3900,2.643,17570,12628,19684,11787
3920,2.597,17574,12631,19685,11787
3940,2.577,17578,12634,19685,11788
3960,2.562,17582,12637,19685,11788
3980,2.528,17587,12641,19686,11789
4000,2.589,17591,12644,19686,11789
4020,2.545,17596,12647,19686,11789
4040,2.533,17601,12651,19686,11790
4060,2.542,17606,12654,19686,11790
4080,2.576,17611,12658,19686,11790
4100,2.568,17617,12662,19686,11791
4120,2.562,17622,12665,19685,11791
4140,2.741,17627,12669,19684,11791
4160,3.164,17632,12672,19683,11791
4180,3.611,17637,12675,19681,11792
4200,3.916,17642,12678,19680,11792
4220,3.923,17646,12681,19678,11793
4240,3.83,17651,12684,19675,11793
4260,3.595,17655,12686,19673,11794
4280,3.35,17659,12688,19670,11794
4300,3.094,17663,12690,19667,11795
4320,2.909,17667,12691,19664,11795
4340,2.766,17670,12693,19661,11796
4360,2.671,17674,12695,19658,11797
4380,2.618,17677,12696,19656,11797
4400,2.61,17681,12698,19653,11798
4420,2.645,17684,12699,19651,11798
4440,2.728,17688,12701,19649,11798
4460,2.826,17691,12702,19647,11798
4480,2.915,17694,12704,19646,11798
4500,2.931,17697,12706,19645,11798
4520,2.933,17701,12707,19644,11798
4540,2.868,17704,12709,19643,11798
4560,2.833,17707,12710,19643,11798
4580,2.784,17710,12712,19642,11798
4600,2.73,17713,12713,19642,11798
4620,2.618,17717,12715,19642,11798
4640,2.607,17720,12716,19642,11799
4660,2.622,17723,12718,19642,11800
4680,2.611,17727,12719,19642,11800
4700,2.584,17730,12721,19642,11801
4720,2.612,17733,12722,19642,11802
4740,2.6,17737,12723,19642,11803
4760,2.598,17740,12724,19642,11803
4780,2.579,17743,12725,19641,11804
4800,2.654,17746,12726,19640,11804
4820,2.976,17748,12727,19639,11804
4840,3.469,17750,12727,19637,11804
4860,3.905,17752,12727,19634,11804
4880,3.995,17754,12727,19632,11803
4900,3.909,17756,12727,19629,11803
4920,3.69,17757,12727,19625,11803
4940,3.388,17758,12727,19622,11803
4960,3.129,17759,12727,19618,11803
4980,2.912,17760,12727,19614,11803
5000,2.773,17761,12727,19611,11803
5020,2.675,17762,12727,19608,11803
5040,2.556,17763,12727,19606,11804
5060,2.538,17764,12727,19604,11804
5080,2.589,17765,12727,19602,11805
5100,2.706,17766,12727,19601,11805
5120,2.832,17767,12727,19600,11805
5140,2.926,17767,12728,19600,11805
5160,2.947,17768,12728,19600,11804
5180,2.95,17768,12728,19600,11804
5200,2.919,17769,12728,19600,11803
5220,2.856,17769,12728,19600,11802
5240,2.804,17769,12728,19601,11801
5260,2.738,17768,12727,19602,11800
5280,2.682,17768,12727,19603,11799
5300,2.639,17767,12727,19604,11798
5320,2.622,17767,12727,19605,11798
5340,2.596,17766,12727,19607,11797
5360,2.598,17766,12727,19608,11797
5380,2.597,17765,12727,19610,11797
5400,2.589,17765,12727,19612,11797
5420,2.611,17764,12727,19613,11796
5440,2.58,17763,12727,19615,11796
5460,2.703,17762,12727,19616,11796
5480,3.056,17761,12727,19616,11796
5500,3.574,17760,12726,19617,11795
5520,3.992,17758,12725,19616,11794
5540,4,17755,12723,19615,11794
5560,3.985,17752,12721,19614,11793
5580,3.767,17749,12718,19612,11792
5600,3.478,17745,12716,19610,11792
5620,3.199,17740,12712,19608,11791
5640,2.941,17735,12709,19605,11790
5660,2.8,17730,12705,19603,11790
5680,2.707,17724,12702,19601,11789
5700,2.643,17718,12697,19599,11789
5720,2.576,17711,12693,19597,11788
5740,2.604,17705,12689,19596,11787
5760,2.685,17698,12685,19596,11786
5780,2.791,17691,12681,19596,11785
5800,2.864,17684,12677,19596,11784
5820,2.941,17678,12673,19597,11783
5840,2.892,17671,12669,19598,11781
5860,2.868,17665,12666,19600,11779
5880,2.818,17659,12663,19602,11777
5900,2.768,17653,12660,19604,11775
5920,2.703,17647,12657,19606,11774
5940,2.663,17642,12655,19609,11772
5960,2.6,17637,12653,19612,11770
5980,2.591,17632,12650,19615,11768
6000,2.591,17628,12648,19618,11767
6020,2.587,17624,12646,19621,11766
6040,2.625,17620,12644,19624,11764
6060,2.593,17617,12642,19626,11763
6080,2.58,17613,12640,19629,11763
6100,2.612,17610,12638,19631,11762
6120,2.719,17607,12636,19633,11761
6140,3.085,17604,12634,19635,11760
6160,3.593,17600,12631,19636,11760
6180,3.96,17597,12629,19637,11759
6200,3.998,17594,12626,19638,11758
6220,3.93,17591,12623,19638,11757
6240,3.701,17587,12621,19638,11757
6260,3.451,17584,12619,19637,11756
6280,3.199,17580,12616,19637,11756
6300,3.003,17576,12614,19636,11755
6320,2.873,17573,12612,19635,11755
6340,2.794,17569,12611,19635,11755
6360,2.735,17565,12609,19634,11755
6380,2.633,17561,12608,19634,11755
6400,2.615,17557,12606,19635,11754
6420,2.619,17553,12605,19636,11754
6440,2.65,17549,12604,19637,11754
6460,2.73,17546,12603,19639,11753
6480,2.776,17542,12602,19641,11753
6500,2.815,17539,12602,19644,11752
6520,2.825,17535,12601,19647,11751
6540,2.794,17532,12600,19650,11751
6560,2.737,17529,12599,19653,11750
6580,2.699,17526,12599,19656,11749
6600,2.628,17524,12598,19659,11748
6620,2.573,17521,12598,19662,11747
6640,2.52,17519,12597,19665,11747
6660,2.52,17517,12597,19668,11746
6680,2.524,17515,12596,19670,11745
6700,2.505,17513,12596,19673,11745
6720,2.552,17512,12595,19675,11745
6740,2.642,17510,12595,19678,11745
6760,2.638,17509,12594,19680,11745
6780,2.516,17507,12593,19682,11745
6800,2.624,17506,12592,19683,11746
6820,2.982,17505,12591,19685,11746
6840,3.55,17504,12590,19686,11746
6860,3.97,17503,12589,19687,11746
6880,3.985,17501,12588,19687,11746
6900,3.937,17500,12587,19687,11747
6920,3.747,17499,12585,19687,11747
6940,3.463,17497,12584,19686,11746
6960,3.228,17495,12583,19685,11746
6980,3.025,17494,12581,19684,11746
7000,2.915,17492,12580,19682,11745
7020,2.849,17490,12579,19680,11745
7040,2.811,17489,12577,19678,11744
7060,2.73,17487,12576,19676,11743
7080,2.628,17485,12575,19674,11743
7100,2.636,17484,12573,19672,11742
7120,2.653,17482,12572,19671,11741
7140,2.709,17481,12571,19669,11740
7160,2.735,17480,12569,19668,11739
7180,2.776,17479,12568,19667,11738
7200,2.773,17478,12567,19666,11737
7220,2.749,17477,12565,19666,11736
7240,2.735,17476,12564,19665,11735
7260,2.67,17476,12563,19666,11735
7280,2.607,17475,12562,19666,11734
7300,2.551,17475,12561,19667,11733
7320,2.535,17474,12561,19668,11733
7340,2.486,17474,12560,19670,11732
7360,2.485,17473,12560,19671,11732
7380,2.478,17473,12560,19673,11732
7400,2.477,17473,12560,19675,11732
7420,2.554,17472,12560,19677,11733
7440,2.568,17472,12560,19679,11734
7460,2.607,17472,12560,19680,11734
7480,2.587,17472,12561,19682,11735
7500,2.663,17471,12561,19684,11736
7520,3.01,17471,12561,19685,11737
7540,3.505,17471,12562,19686,11737
7560,3.954,17471,12562,19686,11738
7580,3.992,17471,12562,19687,11738
7600,3.967,17471,12562,19687,11739
7620,3.757,17472,12562,19686,11739
7640,3.529,17472,12562,19685,11739
7660,3.281,17472,12562,19684,11740
7680,3.057,17473,12563,19683,11740
7700,2.917,17473,12563,19683,11740
7720,2.878,17474,12563,19682,11741
7740,2.831,17474,12563,19681,11741
7760,2.727,17475,12564,19680,11742
7780,2.674,17475,12564,19680,11742
7800,2.604,17476,12565,19680,11743
7820,2.629,17476,12565,19681,11744
7840,2.661,17476,12566,19681,11744
7860,2.717,17477,12567,19682,11745
7880,2.755,17477,12567,19683,11746
7900,2.804,17477,12568,19685,11746
7920,2.793,17478,12569,19686,11746
7940,2.738,17478,12570,19688,11746
7960,2.696,17478,12571,19689,11746
7980,2.624,17479,12572,19691,11746
8000,2.528,17479,12572,19692,11746
8020,2.495,17479,12573,19694,11746
8040,2.481,17479,12574,19695,11746
8060,2.474,17480,12575,19697,11746
8080,2.465,17480,12575,19698,11746
8100,2.44,17480,12576,19699,11747
8120,2.458,17480,12576,19701,11747
8140,2.474,17480,12577,19702,11747
8160,2.523,17480,12577,19703,11748
8180,2.544,17480,12577,19704,11748
8200,2.541,17479,12577,19705,11748
8220,2.521,17479,12577,19706,11748
8240,2.647,17479,12577,19706,11748
8260,3.07,17478,12577,19707,11749
8280,3.571,17478,12576,19707,11749
8300,3.883,17478,12576,19706,11749
8320,3.928,17477,12576,19706,11749
8340,3.781,17477,12575,19705,11750
8360,3.527,17477,12574,19704,11750
8380,3.271,17476,12574,19703,11750
8400,3.042,17476,12573,19701,11751
8420,2.868,17476,12573,19699,11752
8440,2.812,17475,12573,19698,11753
8460,2.752,17475,12572,19696,11754
8480,2.702,17475,12572,19695,11755
8500,2.618,17475,12573,19694,11756
8520,2.576,17475,12573,19694,11756
8540,2.565,17475,12574,19693,11757
8560,2.621,17476,12575,19694,11758
8580,2.681,17476,12576,19694,11758
8600,2.744,17477,12577,19695,11758
8620,2.761,17477,12578,19696,11758
8640,2.759,17478,12580,19698,11758
8660,2.684,17478,12581,19699,11758
8680,2.629,17478,12582,19701,11757
8700,2.576,17479,12583,19703,11756
8720,2.537,17479,12584,19704,11756
8740,2.498,17479,12584,19706,11755
8760,2.493,17479,12585,19707,11754
8780,2.471,17479,12585,19708,11753
8800,2.45,17478,12585,19710,11752
8820,2.468,17478,12585,19711,11752
8840,2.467,17478,12585,19712,11751
8860,2.484,17478,12585,19713,11750
8880,2.463,17477,12585,19714,11749
8900,2.537,17477,12584,19714,11749
8920,2.538,17477,12584,19715,11748
8940,2.551,17477,12584,19716,11748
8960,2.523,17476,12583,19716,11747
8980,2.542,17476,12583,19716,11747
9000,2.8,17476,12582,19716,11747
9020,3.278,17476,12582,19715,11747
9040,3.702,17475,12581,19715,11747
9060,3.926,17475,12581,19714,11747
9080,3.883,17475,12580,19713,11747
9100,3.67,17475,12580,19711,11748
9120,3.382,17474,12579,19710,11748
9140,3.144,17474,12579,19709,11749
9160,2.931,17474,12579,19708,11750
9180,2.824,17474,12579,19706,11751
9200,2.73,17474,12579,19705,11752
9220,2.664,17474,12579,19705,11754
9240,2.596,17475,12579,19704,11755
9260,2.537,17475,12580,19704,11756
9280,2.582,17475,12581,19704,11757
9300,2.589,17476,12582,19704,11757
9320,2.67,17476,12583,19704,11758
9340,2.678,17477,12584,19705,11758
9360,2.738,17478,12585,19706,11758
9380,2.719,17478,12586,19707,11758
9400,2.689,17479,12588,19708,11758
9420,2.642,17479,12589,19709,11758
9440,2.612,17480,12589,19710,11757
9460,2.562,17480,12590,19711,11757
9480,2.531,17480,12591,19712,11757
9500,2.495,17480,12592,19714,11757
9520,2.488,17480,12592,19715,11757
9540,2.461,17480,12592,19716,11757
9560,2.443,17480,12592,19717,11757
9580,2.464,17480,12592,19718,11758
9600,2.45,17480,12592,19719,11758
9620,2.458,17480,12592,19720,11758
9640,2.499,17480,12592,19721,11759
9660,2.493,17480,12592,19721,11759
9680,2.524,17480,12592,19722,11759
9700,2.503,17480,12592,19722,11759
9720,2.509,17480,12592,19723,11759
9740,2.719,17480,12592,19723,11759
9760,3.217,17481,12592,19722,11758
9780,3.631,17481,12592,19722,11758
9800,3.894,17481,12592,19721,11758
9820,3.886,17482,12591,19720,11758
9840,3.707,17482,12591,19719,11758
9860,3.427,17482,12591,19718,11758
9880,3.196,17483,12591,19717,11759
9900,2.994,17483,12591,19715,11759
9920,2.856,17483,12591,19714,11759
9940,2.728,17484,12591,19712,11759
9960,2.652,17484,12592,19711,11759
9980,2.611,17484,12592,19710,11760
10000,2.577,17484,12593,19709,11760
10020,2.566,17485,12593,19708,11759
10040,2.619,17485,12594,19708,11759
10060,2.73,17485,12594,19708,11759
10080,2.808,17486,12595,19708,11758
10100,2.798,17486,12595,19708,11758
10120,2.777,17487,12596,19709,11758
10140,2.765,17487,12596,19710,11757
10160,2.73,17488,12597,19711,11757
10180,2.656,17488,12597,19712,11757
10200,2.6,17489,12597,19713,11757
10220,2.582,17489,12597,19715,11757
10240,2.538,17489,12597,19716,11758
10260,2.51,17490,12598,19718,11758
10280,2.477,17490,12598,19719,11759
10300,2.489,17490,12598,19721,11759
10320,2.502,17490,12598,19722,11760
10340,2.523,17490,12598,19724,11761
10360,2.516,17490,12599,19725,11761
10380,2.541,17490,12599,19727,11762
10400,2.528,17490,12599,19728,11762
10420,2.57,17490,12599,19729,11762
10440,2.548,17490,12599,19730,11763
10460,2.59,17489,12599,19731,11763
10480,2.878,17489,12599,19732,11763
10500,3.371,17488,12599,19733,11763
10520,3.853,17488,12599,19734,11763
10540,3.998,17487,12599,19734,11764
10560,3.958,17487,12599,19734,11764
10580,3.768,17486,12598,19734,11765
10600,3.505,17486,12598,19734,11765
10620,3.196,17485,12597,19733,11766
10640,2.934,17485,12597,19732,11766
10660,2.832,17484,12597,19731,11767
10680,2.685,17484,12596,19730,11768
10700,2.596,17483,12596,19730,11769
10720,2.534,17483,12596,19729,11770
10740,2.555,17483,12596,19728,11770
10760,2.577,17483,12596,19727,11771
10780,2.639,17483,12596,19727,11771
10800,2.738,17483,12597,19727,11772
10820,2.776,17483,12597,19727,11772
10840,2.824,17483,12598,19727,11772
10860,2.843,17483,12598,19727,11771
10880,2.797,17483,12599,19728,11771
10900,2.747,17483,12599,19728,11770
10920,2.666,17483,12600,19729,11769
10940,2.608,17483,12600,19730,11769
10960,2.549,17484,12601,19730,11768
10980,2.51,17484,12601,19731,11767
11000,2.52,17484,12601,19732,11767
11020,2.523,17485,12601,19733,11766
11040,2.513,17485,12601,19733,11766
11060,2.516,17486,12601,19734,11765
11080,2.524,17486,12602,19735,11765
11100,2.551,17487,12602,19735,11765
11120,2.589,17488,12602,19736,11764
11140,2.61,17489,12602,19736,11764
11160,2.593,17490,12602,19736,11764
11180,2.586,17492,12602,19736,11764
11200,2.688,17493,12603,19735,11764
11220,3.15,17495,12603,19734,11763
11240,3.722,17497,12603,19733,11763
11260,4.002,17499,12604,19732,11763
11280,4,17502,12605,19730,11763
11300,3.907,17504,12605,19728,11764
11320,3.641,17507,12606,19726,11764
11340,3.34,17510,12607,19724,11764
11360,3.082,17513,12608,19722,11765
11380,2.915,17516,12609,19719,11766
11400,2.756,17520,12611,19717,11767
11420,2.622,17523,12613,19715,11768
11440,2.551,17527,12615,19712,11769
11460,2.537,17530,12617,19711,11770
11480,2.555,17534,12619,19709,11771
11500,2.639,17537,12622,19707,11772
11520,2.747,17541,12625,19706,11772
11540,2.801,17544,12627,19705,11773
11560,2.859,17548,12630,19705,11773
11580,2.849,17551,12633,19704,11773
11600,2.832,17555,12636,19704,11774
11620,2.796,17558,12638,19703,11774
11640,2.723,17561,12641,19703,11774
11660,2.679,17565,12643,19703,11774
11680,2.607,17568,12645,19703,11774
11700,2.565,17571,12648,19703,11774
11720,2.561,17574,12650,19703,11775
11740,2.526,17577,12652,19703,11775
11760,2.495,17580,12654,19703,11776
11780,2.498,17583,12656,19704,11776
11800,2.505,17587,12658,19704,11776
11820,2.531,17590,12660,19705,11777
11840,2.535,17593,12662,19705,11777
11860,2.5,17596,12664,19706,11777
11880,2.559,17600,12666,19706,11777
11900,2.789,17603,12668,19705,11777
11920,3.262,17606,12670,19705,11777
11940,3.723,17610,12672,19704,11776
11960,3.912,17613,12674,19703,11776
11980,3.853,17617,12676,19701,11776
12000,3.631,17621,12678,19699,11776
12020,3.323,17624,12680,19696,11776
12040,3.018,17628,12682,19694,11777
12060,2.829,17632,12684,19691,11778
12080,2.696,17636,12686,19689,11779
12100,2.601,17640,12688,19687,11780
12120,2.53,17644,12691,19685,11781
12140,2.457,17648,12693,19683,11783
12160,2.423,17652,12695,19682,11784
12180,2.491,17656,12698,19681,11786
12200,2.642,17660,12700,19681,11787
12220,2.749,17663,12703,19681,11789
12240,2.817,17667,12705,19681,11790
12260,2.829,17670,12708,19682,11792
12280,2.8,17673,12710,19682,11793
12300,2.749,17676,12713,19683,11794
12320,2.684,17679,12715,19684,11795
12340,2.649,17682,12717,19685,11796
12360,2.604,17684,12719,19686,11796
12380,2.594,17687,12722,19687,11797
12400,2.52,17690,12724,19688,11798
12420,2.519,17693,12726,19689,11799
12440,2.52,17696,12728,19690,11800
12460,2.495,17700,12730,19691,11801
12480,2.505,17703,12732,19693,11801
12500,2.467,17706,12734,19693,11802
12520,2.506,17709,12736,19694,11802
12540,2.555,17712,12738,19695,11802
12560,2.773,17715,12740,19695,11802
12580,3.231,17718,12741,19695,11802
12600,3.686,17721,12743,19695,11802
12620,3.89,17723,12744,19694,11802
12640,3.816,17726,12745,19693,11802
12660,3.6,17728,12746,19693,11801
12680,3.304,17730,12747,19691,11801
12700,3.057,17732,12748,19690,11802
12720,2.804,17734,12749,19689,11802
12740,2.685,17735,12751,19688,11803
12760,2.544,17737,12752,19688,11804
12780,2.46,17740,12753,19687,11805
12800,2.428,17742,12755,19687,11806
12820,2.485,17744,12756,19686,11808
12840,2.562,17746,12757,19686,11809
12860,2.689,17748,12759,19686,11811
12880,2.779,17750,12760,19687,11812
12900,2.867,17752,12761,19687,11813
12920,2.835,17754,12762,19687,11813
12940,2.824,17755,12763,19687,11814
12960,2.735,17756,12764,19688,11814
12980,2.675,17757,12764,19688,11813
13000,2.668,17758,12765,19688,11813
13020,2.582,17759,12766,19688,11812
13040,2.563,17760,12766,19689,11812
13060,2.512,17761,12767,19689,11811
13080,2.507,17761,12767,19690,11811
13100,2.53,17762,12768,19690,11811
13120,2.548,17763,12769,19691,11811
13140,2.527,17763,12769,19691,11812
13160,2.537,17764,12770,19692,11812
13180,2.617,17764,12770,19692,11812
13200,2.976,17765,12770,19692,11813
13220,3.473,17765,12770,19692,11813
13240,3.84,17765,12771,19691,11813
13260,3.926,17765,12770,19690,11813
13280,3.774,17764,12770,19689,11813
13300,3.525,17764,12770,19688,11813
13320,3.236,17763,12770,19687,11813
13340,3.001,17763,12769,19685,11813
13360,2.817,17761,12769,19684,11812
13380,2.733,17760,12768,19683,11812
13400,2.619,17759,12768,19681,11811
13420,2.542,17757,12767,19680,11811
13440,2.545,17754,12767,19679,11811
13460,2.605,17751,12766,19678,11810
13480,2.679,17748,12765,19678,11810
13500,2.752,17744,12763,19677,11809
13520,2.784,17740,12761,19676,11808
13540,2.846,17735,12759,19676,11807
13560,2.863,17729,12756,19675,11805
13580,2.812,17722,12753,19675,11804
13600,2.784,17715,12750,19675,11802
13620,2.726,17708,12746,19675,11800
13640,2.65,17700,12742,19675,11798
13660,2.631,17692,12738,19676,11795
13680,2.622,17683,12734,19677,11793
13700,2.614,17674,12729,19679,11791
13720,2.579,17666,12725,19680,11789
13740,2.607,17657,12721,19682,11787
13760,2.591,17648,12716,19685,11785
13780,2.601,17640,12712,19687,11783
13800,2.934,17632,12707,19689,11782
13820,3.431,17624,12703,19691,11780
13840,3.894,17617,12698,19692,11779
13860,4,17609,12693,19693,11778
13880,3.967,17603,12689,19694,11778
13900,3.785,17596,12684,19695,11777
13920,3.53,17590,12679,19695,11777
13940,3.284,17584,12675,19695,11778
13960,3.082,17578,12670,19695,11778
13980,2.945,17573,12666,19695,11779
14000,2.843,17568,12663,19695,11779
14020,2.777,17563,12659,19695,11780
14040,2.707,17558,12656,19695,11781
14060,2.642,17554,12654,19696,11781
14080,2.625,17550,12651,19697,11782
14100,2.699,17546,12650,19698,11782
14120,2.77,17542,12648,19699,11782
14140,2.814,17539,12647,19701,11782
14160,2.853,17536,12646,19703,11781
14180,2.831,17532,12646,19705,11781
14200,2.793,17530,12645,19708,11781
14220,2.728,17527,12645,19711,11780
14240,2.678,17524,12644,19713,11780
14260,2.594,17522,12644,19717,11780
14280,2.577,17520,12644,19720,11780
14300,2.53,17518,12644,19723,11780
14320,2.538,17516,12644,19727,11780
14340,2.506,17514,12644,19730,11781
14360,2.544,17512,12644,19733,11781
14380,2.538,17510,12644,19736,11782
14400,2.563,17509,12644,19739,11783
14420,2.639,17507,12644,19742,11783
14440,2.992,17506,12644,19744,11784
14460,3.506,17504,12644,19746,11784
14480,3.929,17502,12644,19747,11785
14500,3.995,17501,12643,19748,11785
14520,3.986,17499,12643,19749,11785
14540,3.819,17498,12642,19749,11785
14560,3.588,17496,12642,19748,11785
14580,3.337,17495,12641,19748,11785
14600,3.12,17493,12640,19747,11785
14620,3.017,17492,12640,19746,11785
14640,2.954,17490,12639,19745,11785
14660,2.882,17489,12638,19744,11786
14680,2.787,17487,12638,19744,11786
14700,2.681,17486,12637,19744,11786
14720,2.661,17484,12637,19743,11786
14740,2.619,17483,12636,19744,11786
14760,2.649,17482,12636,19744,11785
14780,2.742,17480,12636,19745,11785
14800,2.777,17479,12635,19746,11785
14820,2.755,17478,12635,19747,11785
14840,2.724,17476,12635,19748,11784
14860,2.663,17475,12635,19749,11784
14880,2.645,17474,12635,19750,11783
14900,2.615,17473,12635,19752,11783
14920,2.549,17472,12635,19753,11782
14940,2.524,17472,12635,19754,11782
14960,2.521,17471,12635,19755,11781
14980,2.528,17470,12636,19756,11781
15000,2.499,17470,12636,19758,11780
15020,2.526,17469,12636,19759,11779
15040,2.533,17469,12637,19760,11779
15060,2.498,17469,12637,19761,11778
15080,2.709,17469,12637,19762,11778
15100,3.119,17469,12637,19762,11777
15120,3.602,17468,12637,19763,11776
15140,3.956,17468,12637,19763,11776
15160,3.989,17468,12636,19763,11775
15180,3.858,17468,12636,19762,11775
15200,3.639,17468,12635,19761,11775
15220,3.404,17468,12635,19760,11775
15240,3.211,17468,12634,19759,11775
15260,3.01,17468,12634,19758,11775
15280,2.968,17468,12633,19757,11776
15300,2.894,17468,12633,19756,11777
15320,2.818,17468,12633,19755,11778
15340,2.702,17468,12634,19755,11779
15360,2.612,17468,12634,19755,11780
15380,2.549,17468,12635,19755,11781
15400,2.589,17468,12636,19755,11782
15420,2.667,17468,12637,19756,11783
15440,2.714,17468,12638,19757,11784
15460,2.72,17468,12639,19758,11784
15480,2.758,17468,12640,19760,11784
15500,2.709,17468,12641,19761,11784
15520,2.652,17467,12642,19763,11784
15540,2.579,17467,12643,19765,11784
15560,2.54,17467,12644,19767,11783
15580,2.493,17467,12645,19768,11783
15600,2.467,17467,12645,19770,11783
15620,2.437,17467,12646,19772,11782
15640,2.475,17467,12646,19773,11782
15660,2.458,17467,12647,19774,11782
15680,2.491,17466,12647,19776,11782
15700,2.489,17466,12648,19777,11783
15720,2.489,17466,12648,19778,11783
15740,2.503,17466,12648,19779,11784
15760,2.551,17466,12649,19780,11784
15780,2.712,17466,12649,19780,11785
15800,3.073,17466,12649,19780,11785
15820,3.474,17466,12649,19780,11786
15840,3.749,17465,12649,19780,11786
15860,3.767,17465,12649,19780,11787
15880,3.625,17465,12649,19779,11787
15900,3.41,17465,12649,19778,11788
15920,3.157,17465,12649,19777,11788
15940,2.99,17465,12649,19775,11789
15960,2.875,17465,12649,19774,11790
15980,2.784,17465,12649,19773,11790
16000,2.734,17465,12649,19772,11791
16020,2.656,17465,12649,19771,11792
16040,2.593,17465,12650,19771,11793
16060,2.569,17465,12650,19770,11794
16080,2.573,17465,12650,19770,11795
16100,2.617,17465,12651,19770,11795
16120,2.656,17466,12651,19771,11796
16140,2.688,17466,12651,19772,11796
16160,2.716,17466,12652,19773,11796
16180,2.691,17467,12652,19774,11796
16200,2.638,17467,12652,19775,11796
16220,2.589,17467,12652,19776,11796
16240,2.565,17467,12652,19777,11796
16260,2.481,17467,12652,19779,11795
16280,2.457,17466,12652,19780,11795
16300,2.464,17466,12652,19781,11794
16320,2.474,17466,12652,19782,11794
16340,2.468,17465,12651,19783,11793
16360,2.465,17465,12651,19784,11793
16380,2.461,17464,12651,19784,11792
16400,2.477,17464,12651,19785,11792
16420,2.471,17463,12651,19785,11792
16440,2.482,17463,12651,19786,11792
16460,2.493,17463,12650,19786,11792
16480,2.477,17462,12650,19786,11791
16500,2.505,17462,12650,19786,11791
16520,2.633,17462,12649,19786,11791
16540,3.021,17461,12649,19785,11790
16560,3.374,17461,12648,19785,11790
16580,3.646,17461,12648,19784,11790
16600,3.688,17460,12647,19783,11790
16620,3.533,17460,12647,19782,11789
16640,3.33,17459,12646,19781,11789
16660,3.105,17458,12645,19779,11790
16680,2.929,17458,12645,19778,11790
16700,2.843,17457,12644,19776,11790
16720,2.77,17456,12644,19775,11791
16740,2.755,17456,12643,19774,11792
16760,2.66,17455,12643,19773,11792
16780,2.598,17454,12643,19772,11793
16800,2.562,17454,12643,19771,11793
16820,2.562,17453,12643,19771,11793
16840,2.629,17453,12643,19770,11793
16860,2.678,17452,12643,19770,11793
16880,2.705,17452,12643,19770,11793
16900,2.719,17452,12643,19770,11792
16920,2.67,17452,12643,19770,11792
16940,2.659,17451,12643,19771,11791
16960,2.605,17451,12642,19771,11790
16980,2.545,17451,12642,19771,11789
17000,2.502,17451,12642,19772,11788
17020,2.467,17451,12642,19772,11787
17040,2.46,17450,12642,19773,11787
17060,2.477,17450,12642,19773,11786
17080,2.526,17449,12641,19774,11785
17100,2.503,17449,12641,19774,11785
17120,2.496,17449,12640,19775,11784
17140,2.507,17448,12640,19775,11784
17160,2.534,17448,12639,19775,11783
17180,2.554,17447,12638,19775,11783
17200,2.548,17447,12637,19776,11783
17220,2.53,17447,12635,19775,11782
17240,2.523,17447,12634,19775,11782
17260,2.544,17446,12632,19775,11782
17280,2.689,17446,12630,19774,11782
17300,3.013,17446,12628,19773,11782
17320,3.372,17445,12627,19772,11782
17340,3.61,17445,12625,19771,11782
17360,3.651,17444,12623,19770,11782
17380,3.529,17444,12621,19768,11782
17400,3.333,17443,12620,19766,11782
17420,3.164,17442,12618,19764,11782
17440,3.018,17441,12617,19762,11782
17460,2.891,17441,12616,19760,11782
17480,2.831,17440,12615,19759,11782
17500,2.779,17440,12614,19757,11782
17520,2.721,17439,12614,19756,11783
17540,2.654,17439,12613,19755,11783
17560,2.65,17439,12613,19754,11783
17580,2.657,17439,12613,19753,11784
17600,2.654,17439,12614,19753,11784
17620,2.726,17439,12614,19753,11784
17640,2.769,17439,12614,19753,11784
17660,2.754,17440,12615,19753,11783
17680,2.72,17440,12615,19754,11783
17700,2.709,17441,12615,19754,11783
17720,2.675,17441,12615,19754,11782
17740,2.625,17441,12615,19755,11781
17760,2.619,17441,12615,19755,11780
17780,2.591,17441,12615,19756,11780
17800,2.52,17442,12615,19756,11779
17820,2.513,17441,12614,19757,11778
17840,2.5,17441,12614,19757,11778
17860,2.516,17441,12613,19758,11777
17880,2.534,17441,12613,19759,11777
17900,2.545,17440,12612,19759,11776
17920,2.569,17440,12611,19760,11776
17940,2.583,17439,12610,19761,11776
17960,2.608,17439,12609,19761,11776
17980,2.59,17438,12608,19762,11776
18000,2.59,17438,12607,19763,11776
18020,2.582,17437,12606,19763,11776
18040,2.594,17437,12606,19764,11776
18060,2.744,17436,12605,19764,11776
18080,3.062,17436,12604,19764,11776
18100,3.455,17436,12603,19764,11776
18120,3.718,17435,12602,19764,11777
18140,3.799,17435,12601,19763,11777
18160,3.681,17434,12600,19763,11777
18180,3.425,17434,12599,19762,11778
18200,3.164,17433,12598,19760,11778
18220,3.004,17432,12597,19759,11778
18240,2.894,17432,12596,19757,11779
18260,2.846,17431,12595,19756,11779
18280,2.822,17431,12595,19755,11780
18300,2.777,17430,12594,19753,11780
18320,2.657,17430,12594,19752,11780
18340,2.661,17430,12594,19752,11780
18360,2.654,17430,12595,19751,11780
18380,2.734,17430,12595,19751,11780
18400,2.777,17430,12596,19752,11780
18420,2.775,17430,12597,19753,11779
18440,2.762,17430,12599,19754,11779
18460,2.761,17430,12600,19755,11778
18480,2.758,17429,12601,19756,11778
18500,2.705,17429,12602,19757,11778
18520,2.678,17429,12603,19759,11778
18540,2.59,17429,12604,19760,11778
18560,2.563,17429,12605,19761,11777
18580,2.526,17428,12605,19762,11777
18600,2.538,17428,12606,19763,11777
18620,2.573,17427,12606,19764,11777
18640,2.548,17427,12606,19765,11777
18660,2.579,17426,12606,19766,11776
18680,2.583,17426,12605,19766,11776
18700,2.58,17425,12605,19767,11775
18720,2.587,17425,12604,19767,11775
18740,2.632,17424,12603,19767,11774
18760,2.663,17424,12602,19767,11773
18780,2.64,17423,12600,19767,11773
18800,2.568,17422,12599,19767,11772
18820,2.58,17422,12597,19767,11771
18840,2.608,17421,12596,19766,11771
18860,2.866,17420,12594,19766,11770
18880,3.288,17419,12593,19765,11770
18900,3.666,17419,12591,19763,11770
18920,3.859,17418,12589,19762,11770
18940,3.82,17417,12588,19761,11770
18960,3.589,17417,12586,19759,11770
18980,3.36,17416,12585,19757,11770
19000,3.122,17416,12584,19755,11771
19020,2.945,17415,12582,19754,11771
19040,2.84,17415,12582,19752,11772
19060,2.786,17415,12581,19751,11773
19080,2.756,17415,12581,19750,11773
19100,2.721,17415,12581,19750,11774
19120,2.653,17415,12581,19749,11775
19140,2.652,17415,12581,19749,11775
19160,2.652,17415,12582,19750,11776
19180,2.742,17415,12583,19751,11776
19200,2.796,17415,12585,19752,11777
19220,2.832,17416,12586,19753,11777
19240,2.824,17416,12587,19754,11777
19260,2.79,17417,12589,19756,11778
19280,2.783,17417,12590,19757,11778
19300,2.775,17417,12592,19759,11778
19320,2.695,17417,12593,19760,11778
19340,2.695,17418,12595,19762,11779
19360,2.656,17418,12596,19763,11779
19380,2.636,17418,12597,19765,11779
19400,2.638,17418,12598,19766,11779
19420,2.594,17417,12599,19767,11779
19440,2.614,17417,12599,19768,11779
19460,2.621,17417,12600,19768,11779
19480,2.628,17417,12600,19769,11778
19500,2.624,17417,12600,19770,11777
19520,2.663,17417,12601,19770,11777
19540,2.666,17417,12601,19771,11776
19560,2.686,17417,12601,19771,11775
19580,2.671,17417,12601,19772,11774
19600,2.661,17417,12601,19773,11773
19620,2.674,17417,12601,19773,11772
19640,2.817,17417,12601,19774,11771
19660,3.266,17416,12601,19774,11771
19680,3.729,17416,12601,19774,11770
19700,3.984,17416,12601,19774,11769
19720,3.979,17416,12600,19774,11769
19740,3.838,17415,12600,19773,11769
19760,3.59,17415,12599,19772,11769
19780,3.344,17414,12599,19771,11769
19800,3.141,17413,12598,19770,11769
19820,3.024,17413,12598,19769,11769
19840,2.899,17412,12598,19768,11769
19860,2.807,17412,12598,19767,11769
19880,2.759,17411,12598,19766,11769
19900,2.675,17411,12599,19765,11769
19920,2.719,17411,12599,19764,11769
19940,2.763,17411,12600,19763,11768
19960,2.842,17412,12601,19763,11768
19980,2.846,17412,12602,19763,11768
20000,2.906,17413,12603,19763,11768
20020,2.908,17414,12604,19763,11768
20040,2.87,17414,12605,19764,11768
20060,2.818,17415,12605,19764,11767
20080,2.805,17416,12605,19765,11767
20100,2.751,17416,12605,19766,11767
20120,2.702,17417,12605,19766,11767
20140,2.678,17417,12604,19767,11767
20160,2.654,17417,12603,19768,11766
20180,2.654,17417,12602,19768,11766
20200,2.629,17417,12601,19769,11766
20220,2.61,17417,12600,19769,11765
20240,2.625,17417,12599,19770,11765
20260,2.667,17416,12598,19770,11765
20280,2.659,17416,12597,19771,11764
20300,2.675,17415,12596,19771,11764
20320,2.688,17415,12595,19772,11763
20340,2.693,17414,12594,19772,11763
20360,2.667,17414,12593,19772,11762
20380,2.688,17413,12592,19772,11761
20400,2.901,17413,12591,19772,11761
20420,3.399,17413,12590,19772,11760
20440,3.847,17412,12590,19771,11760
20460,3.995,17412,12589,19771,11760
20480,3.971,17411,12588,19770,11759
20500,3.782,17411,12588,19769,11759
20520,3.579,17411,12588,19767,11759
20540,3.343,17410,12587,19766,11760
20560,3.096,17410,12587,19765,11760
20580,2.968,17410,12587,19763,11761
20600,2.871,17410,12587,19762,11762
20620,2.814,17410,12587,19761,11762
20640,2.719,17410,12588,19761,11763
20660,2.657,17410,12589,19760,11764
20680,2.661,17410,12590,19760,11765
20700,2.735,17410,12591,19760,11765
20720,2.805,17411,12592,19761,11766
20740,2.857,17411,12594,19762,11766
20760,2.923,17412,12595,19763,11766
20780,2.895,17412,12596,19764,11767
20800,2.891,17413,12597,19765,11766
20820,2.818,17414,12599,19767,11766
20840,2.775,17414,12599,19768,11766
20860,2.758,17415,12600,19770,11766
20880,2.696,17415,12601,19771,11766
20900,2.684,17415,12601,19772,11766
20920,2.674,17415,12601,19773,11766
20940,2.663,17416,12601,19775,11766
20960,2.635,17416,12601,19776,11766
20980,2.631,17415,12601,19777,11766
21000,2.66,17415,12600,19778,11766
21020,2.668,17415,12600,19779,11766
21040,2.649,17415,12599,19779,11766
21060,2.667,17416,12599,19780,11766
21080,2.691,17416,12598,19780,11766
21100,2.672,17416,12598,19780,11766
21120,2.659,17416,12597,19780,11767
21140,2.863,17416,12597,19780,11767
21160,3.277,17417,12597,19779,11767
21180,3.735,17417,12596,19778,11767
21200,3.956,17418,12596,19777,11768
21220,3.928,17419,12596,19776,11768
21240,3.75,17420,12596,19774,11769
21260,3.483,17422,12596,19772,11770
21280,3.232,17423,12596,19770,11770
21300,3.008,17425,12596,19768,11771
21320,2.867,17428,12597,19766,11771
21340,2.797,17431,12598,19764,11772
21360,2.728,17434,12599,19762,11773
21380,2.682,17437,12601,19761,11773
21400,2.64,17440,12603,19759,11773
21420,2.645,17443,12605,19758,11774
21440,2.727,17447,12607,19758,11774
21460,2.772,17451,12609,19757,11774
21480,2.852,17455,12612,19757,11773
21500,2.884,17459,12614,19756,11773
21520,2.866,17463,12617,19756,11773
21540,2.814,17467,12620,19757,11773
21560,2.776,17470,12622,19757,11774
21580,2.699,17474,12625,19757,11774
21600,2.672,17478,12627,19757,11775
21620,2.65,17482,12630,19758,11776
21640,2.635,17486,12632,19758,11777
21660,2.589,17490,12634,19759,11778
21680,2.603,17494,12637,19759,11780
21700,2.61,17497,12639,19760,11782
21720,2.582,17501,12641,19761,11783
21740,2.618,17505,12644,19761,11785
21760,2.604,17509,12647,19762,11786
21780,2.628,17513,12649,19762,11787
21800,2.58,17517,12652,19762,11789
21820,2.615,17521,12655,19763,11789
21840,2.828,17525,12657,19762,11790
21860,3.257,17529,12660,19762,11791
21880,3.702,17532,12662,19761,11791
21900,3.963,17536,12664,19760,11791
21920,3.953,17539,12667,19758,11792
21940,3.791,17543,12669,19756,11792
21960,3.518,17546,12670,19754,11793
21980,3.287,17549,12672,19751,11793
22000,3.035,17552,12674,19749,11794
22020,2.856,17555,12676,19746,11794
22040,2.782,17558,12677,19744,11795
22060,2.735,17562,12679,19741,11796
22080,2.635,17565,12680,19739,11797
22100,2.604,17568,12682,19737,11798
22120,2.639,17571,12684,19736,11799
22140,2.714,17574,12685,19734,11799
22160,2.801,17578,12687,19733,11800
22180,2.871,17581,12689,19732,11800
22200,2.863,17584,12690,19732,11800
22220,2.846,17587,12692,19731,11800
22240,2.829,17590,12693,19731,11800
22260,2.81,17593,12694,19731,11800
22280,2.762,17595,12696,19732,11800
22300,2.686,17598,12697,19732,11800
22320,2.666,17601,12698,19733,11799
22340,2.652,17603,12699,19733,11799
22360,2.632,17606,12700,19734,11800
22380,2.618,17608,12702,19735,11800
22400,2.6,17611,12703,19736,11800
22420,2.604,17613,12705,19737,11801
22440,2.615,17616,12706,19738,11801
22460,2.615,17618,12708,19739,11802
22480,2.649,17621,12710,19739,11802
22500,2.824,17623,12711,19739,11803
22520,3.218,17626,12713,19739,11803
22540,3.663,17628,12714,19739,11804
22560,3.943,17630,12715,19738,11804
22580,3.94,17632,12716,19736,11805
22600,3.77,17634,12717,19735,11805
22620,3.495,17636,12718,19733,11806
22640,3.243,17638,12719,19731,11807
22660,3.045,17640,12719,19729,11808
22680,2.842,17642,12720,19727,11809
22700,2.755,17644,12720,19725,11810
22720,2.661,17645,12721,19723,11811
22740,2.624,17647,12721,19721,11813
22760,2.583,17648,12721,19720,11814
22780,2.652,17650,12722,19719,11815
22800,2.727,17651,12722,19717,11816
22820,2.817,17651,12722,19716,11817
22840,2.861,17652,12722,19715,11817
22860,2.908,17652,12723,19715,11817
22880,2.885,17653,12723,19714,11817
22900,2.866,17653,12723,19714,11816
22920,2.815,17652,12723,19714,11816
22940,2.741,17652,12723,19714,11815
22960,2.72,17652,12724,19714,11815
22980,2.686,17651,12724,19714,11814
23000,2.678,17651,12724,19714,11814
23020,2.638,17650,12724,19715,11814
23040,2.642,17650,12724,19716,11814
23060,2.621,17650,12724,19716,11813
23080,2.633,17650,12724,19717,11813
23100,2.647,17650,12724,19717,11813
23120,2.707,17650,12723,19717,11813
23140,3.024,17650,12723,19717,11813
23160,3.485,17650,12722,19717,11812
23180,3.922,17649,12721,19717,11812
23200,3.992,17649,12720,19716,11812
23220,3.995,17649,12719,19714,11811
23240,3.908,17649,12717,19713,11811
23260,3.63,17648,12716,19711,11811
23280,3.357,17648,12715,19709,11811
23300,3.131,17647,12713,19708,11811
23320,2.966,17646,12712,19706,11811
23340,2.903,17645,12710,19704,11812
23360,2.832,17644,12709,19703,11812
23380,2.749,17643,12708,19701,11813
23400,2.719,17641,12707,19700,11813
23420,2.733,17639,12706,19699,11814
23440,2.78,17638,12705,19698,11814
23460,2.906,17635,12704,19697,11814
23480,2.972,17633,12702,19697,11813
23500,2.959,17631,12701,19696,11813
23520,2.937,17628,12699,19696,11812
23540,2.913,17625,12698,19696,11811
23560,2.838,17622,12696,19697,11810
23580,2.763,17619,12694,19697,11809
23600,2.73,17616,12693,19698,11808
23620,2.705,17612,12691,19699,11806
23640,2.663,17609,12689,19701,11805
23660,2.643,17606,12687,19702,11804
23680,2.659,17603,12685,19704,11803
23700,2.643,17600,12683,19705,11803
23720,2.594,17597,12681,19707,11802
23740,2.639,17594,12679,19708,11801
23760,2.895,17591,12677,19709,11800
23780,3.395,17588,12675,19710,11800
23800,3.909,17585,12673,19711,11799
23820,4,17582,12670,19711,11799
23840,3.993,17579,12668,19711,11798
23860,3.989,17576,12666,19711,11797
23880,3.817,17572,12663,19710,11797
23900,3.49,17569,12661,19709,11796
23920,3.273,17566,12658,19708,11795
23940,3.145,17563,12656,19707,11795
23960,3.045,17559,12654,19706,11794
23980,2.912,17556,12652,19705,11793
24000,2.798,17552,12650,19704,11793
24020,2.728,17549,12648,19703,11792
24040,2.692,17545,12646,19702,11791
24060,2.751,17542,12645,19702,11790
24080,2.796,17539,12643,19702,11789
24100,2.896,17536,12641,19702,11788
24120,2.93,17532,12640,19703,11787
24140,2.919,17529,12638,19704,11786
24160,2.874,17526,12636,19705,11784
24180,2.801,17523,12634,19706,11783
24200,2.773,17521,12632,19707,11782
24220,2.677,17518,12631,19709,11781
24240,2.646,17516,12629,19711,11780
24260,2.621,17514,12627,19713,11779
24280,2.622,17512,12626,19715,11778
24300,2.611,17510,12624,19717,11778
24320,2.619,17508,12623,19719,11777
24340,2.608,17507,12622,19721,11777
24360,2.605,17506,12622,19723,11776
24380,2.604,17504,12621,19724,11776
24400,2.726,17503,12621,19726,11776
24420,3.192,17502,12620,19727,11776
24440,3.719,17500,12620,19727,11776
24460,3.998,17499,12619,19728,11776
24480,3.993,17497,12618,19728,11776
24500,4,17496,12618,19727,11776
24520,3.949,17494,12617,19727,11776
24540,3.694,17492,12616,19726,11776
24560,3.395,17490,12615,19725,11776
24580,3.182,17488,12614,19724,11776
24600,3.071,17487,12613,19723,11776
24620,3.014,17485,12612,19722,11776
24640,2.91,17483,12611,19721,11775
24660,2.779,17481,12610,19721,11775
24680,2.716,17479,12609,19720,11774
24700,2.705,17477,12609,19720,11773
24720,2.698,17476,12608,19720,11772
24740,2.742,17474,12607,19720,11771
24760,2.85,17472,12607,19720,11770
24780,2.84,17471,12606,19721,11769
24800,2.84,17469,12605,19722,11769
24820,2.793,17468,12605,19723,11768
24840,2.735,17466,12604,19724,11767
24860,2.702,17465,12604,19725,11767
24880,2.632,17463,12603,19727,11767
24900,2.603,17462,12603,19729,11767
24920,2.552,17461,12602,19731,11767
24940,2.524,17460,12602,19733,11767
24960,2.505,17458,12601,19735,11767
24980,2.513,17457,12601,19737,11768
25000,2.495,17456,12601,19739,11768
25020,2.519,17455,12600,19741,11768
25040,2.53,17454,12600,19743,11768
25060,2.569,17453,12600,19744,11768
25080,2.864,17452,12599,19745,11767
25100,3.281,17451,12599,19746,11767
25120,3.768,17451,12599,19746,11767
25140,3.967,17450,12599,19746,11766
25160,3.94,17449,12598,19746,11766
25180,3.715,17448,12598,19745,11766
25200,3.491,17448,12598,19744,11766
25220,3.305,17447,12597,19743,11766
25240,3.147,17446,12597,19742,11766
25260,3.043,17445,12597,19741,11766
25280,2.945,17444,12596,19740,11766
25300,2.905,17443,12596,19739,11767
25320,2.836,17441,12596,19738,11767
25340,2.699,17440,12596,19738,11768
25360,2.617,17439,12596,19738,11768
25380,2.632,17438,12596,19739,11768
25400,2.661,17437,12596,19739,11769
25420,2.721,17436,12596,19740,11769
25440,2.752,17434,12596,19742,11769
25460,2.741,17433,12596,19744,11770
25480,2.71,17432,12597,19745,11770
25500,2.663,17431,12597,19747,11770
25520,2.617,17430,12598,19749,11770
25540,2.608,17429,12598,19751,11770
25560,2.566,17428,12598,19753,11770
25580,2.547,17427,12598,19755,11770
25600,2.505,17426,12599,19756,11770
25620,2.503,17425,12599,19758,11770
25640,2.506,17424,12599,19759,11769
25660,2.488,17423,12598,19760,11769
25680,2.51,17422,12598,19761,11769
25700,2.549,17421,12598,19762,11769
25720,2.521,17421,12598,19763,11768
25740,2.538,17420,12598,19763,11768
25760,2.527,17419,12597,19763,11768
25780,2.668,17419,12597,19763,11768
25800,3.046,17418,12596,19763,11767
25820,3.506,17418,12596,19763,11767
25840,3.819,17418,12595,19762,11767
25860,3.929,17417,12595,19762,11767
25880,3.849,17417,12594,19761,11767
25900,3.634,17417,12593,19760,11767
25920,3.374,17417,12593,19759,11768
25940,3.193,17416,12592,19758,11769
25960,3.075,17416,12592,19757,11769
25980,2.964,17416,12591,19756,11770
26000,2.917,17416,12591,19756,11771
26020,2.835,17416,12592,19755,11773
26040,2.758,17416,12592,19755,11774
26060,2.682,17416,12593,19756,11775
26080,2.652,17416,12594,19756,11776
26100,2.654,17416,12595,19757,11777
26120,2.709,17416,12596,19758,11778
26140,2.744,17417,12597,19760,11778
26160,2.777,17417,12598,19761,11779
26180,2.751,17417,12599,19763,11779
26200,2.724,17417,12600,19764,11779
26220,2.671,17417,12601,19765,11779
26240,2.6,17417,12602,19766,11779
26260,2.563,17417,12603,19768,11779
26280,2.523,17418,12604,19768,11779
26300,2.503,17418,12605,19769,11779
26320,2.514,17418,12605,19770,11779
26340,2.533,17418,12605,19771,11779
26360,2.505,17417,12606,19771,11779
26380,2.492,17417,12606,19772,11779
26400,2.488,17417,12606,19772,11779
26420,2.558,17417,12606,19773,11779
26440,2.576,17417,12606,19774,11779
26460,2.568,17417,12606,19774,11778
26480,2.53,17417,12606,19775,11778
26500,2.52,17417,12606,19775,11777
26520,2.769,17417,12606,19776,11777
26540,3.21,17417,12605,19776,11776
26560,3.648,17417,12605,19776,11775
26580,3.865,17417,12605,19776,11775
26600,3.841,17417,12604,19775,11775
26620,3.69,17417,12604,19774,11775
26640,3.434,17417,12604,19773,11775
26660,3.208,17417,12604,19772,11775
26680,3.063,17418,12604,19770,11776
26700,2.972,17418,12604,19768,11776
26720,2.92,17419,12604,19767,11777
26740,2.842,17419,12604,19766,11778
26760,2.776,17420,12605,19764,11779
26780,2.692,17421,12605,19763,11780
26800,2.652,17423,12606,19762,11781
26820,2.649,17424,12607,19762,11782
26840,2.706,17426,12608,19762,11783
26860,2.768,17428,12610,19762,11783
26880,2.824,17431,12611,19762,11783
26900,2.836,17433,12612,19762,11783
26920,2.821,17435,12614,19762,11783
26940,2.772,17438,12615,19762,11783
26960,2.664,17441,12616,19762,11783
26980,2.631,17443,12618,19762,11783
27000,2.601,17446,12619,19762,11783
27020,2.629,17449,12621,19762,11783
27040,2.596,17452,12622,19761,11783
27060,2.57,17455,12623,19761,11784
27080,2.565,17458,12625,19760,11784
27100,2.548,17461,12626,19760,11784
27120,2.554,17464,12628,19760,11785
27140,2.591,17467,12629,19759,11785
27160,2.605,17470,12631,19759,11786
27180,2.612,17474,12633,19758,11786
27200,2.643,17477,12634,19758,11786
27220,2.576,17481,12636,19758,11787
27240,2.554,17485,12638,19757,11787
27260,2.679,17488,12640,19757,11787
27280,3.074,17492,12641,19756,11788
27300,3.555,17496,12643,19755,11788
27320,3.867,17500,12645,19754,11788
27340,3.949,17504,12647,19753,11789
27360,3.847,17507,12649,19751,11790
27380,3.603,17511,12651,19749,11790
27400,3.374,17515,12653,19747,11791
27420,3.186,17518,12655,19745,11792
27440,3.068,17522,12657,19743,11793
27460,2.968,17525,12659,19740,11794
27480,2.923,17528,12662,19738,11795
27500,2.815,17532,12664,19736,11796
27520,2.742,17535,12667,19734,11797
27540,2.664,17538,12669,19732,11798
27560,2.698,17542,12672,19730,11798
27580,2.755,17545,12674,19729,11799
27600,2.808,17548,12677,19728,11798
27620,2.857,17552,12679,19727,11798
27640,2.86,17555,12681,19726,11798
27660,2.825,17558,12682,19725,11797
27680,2.804,17561,12684,19724,11797
27700,2.752,17564,12685,19724,11796
27720,2.72,17567,12687,19723,11796
27740,2.706,17570,12688,19723,11796
27760,2.672,17573,12689,19723,11796
27780,2.619,17576,12691,19723,11797
27800,2.597,17578,12692,19723,11798
27820,2.544,17581,12693,19723,11798
27840,2.575,17584,12694,19723,11799
27860,2.594,17586,12696,19723,11801
27880,2.639,17589,12697,19723,11802
27900,2.652,17591,12698,19724,11802
27920,2.656,17593,12699,19724,11803
27940,2.685,17595,12700,19724,11804
27960,2.638,17597,12701,19724,11804
27980,2.631,17598,12702,19723,11804
28000,2.782,17599,12702,19723,11804
28020,3.165,17600,12702,19722,11803
28040,3.574,17600,12702,19721,11803
28060,3.874,17600,12702,19720,11802
28080,3.93,17600,12701,19718,11801
28100,3.775,17599,12700,19717,11800
28120,3.54,17598,12699,19715,11800
28140,3.315,17597,12697,19713,11799
28160,3.106,17595,12696,19712,11799
28180,2.976,17593,12694,19710,11799
28200,2.881,17591,12692,19708,11799
28220,2.793,17589,12690,19707,11799
28240,2.726,17587,12688,19705,11798
28260,2.617,17584,12686,19704,11798
28280,2.636,17582,12684,19703,11798
28300,2.689,17579,12682,19702,11798
28320,2.766,17577,12680,19702,11797
28340,2.85,17574,12678,19701,11796
28360,2.898,17571,12676,19701,11795
28380,2.863,17568,12674,19700,11794
28400,2.829,17565,12672,19700,11792
28420,2.773,17562,12670,19701,11790
28440,2.719,17559,12668,19701,11788
28460,2.688,17555,12666,19701,11787
28480,2.67,17552,12664,19702,11785
28500,2.597,17548,12662,19703,11783
28520,2.551,17544,12660,19704,11781
28540,2.594,17539,12658,19705,11779
28560,2.598,17535,12656,19706,11778
28580,2.619,17531,12654,19707,11776
28600,2.628,17527,12652,19708,11775
28620,2.615,17523,12650,19709,11774
28640,2.625,17519,12648,19710,11773
28660,2.653,17515,12646,19711,11772
28680,2.674,17511,12643,19711,11771
28700,2.693,17507,12641,19712,11769
28720,2.723,17504,12638,19712,11768
28740,2.969,17500,12635,19712,11767
28760,3.403,17497,12633,19712,11766
28780,3.904,17494,12630,19711,11765
28800,3.996,17491,12627,19710,11763
28820,3.995,17488,12624,19708,11762
28840,3.975,17484,12621,19707,11760
28860,3.764,17481,12618,19705,11759
28880,3.446,17477,12614,19702,11757
28900,3.235,17474,12611,19700,11756
28920,3.067,17470,12608,19697,11754
28940,2.971,17467,12604,19695,11752
28960,2.905,17463,12600,19693,11751
28980,2.84,17460,12597,19691,11750
29000,2.769,17457,12593,19689,11748
29020,2.765,17454,12590,19688,11747
29040,2.79,17451,12586,19688,11746
29060,2.826,17448,12583,19687,11745
29080,2.917,17446,12580,19688,11745
29100,2.952,17444,12577,19688,11744
29120,2.952,17442,12575,19690,11743
29140,2.934,17440,12573,19691,11742
29160,2.88,17439,12571,19692,11742
29180,2.793,17437,12569,19694,11741
29200,2.763,17436,12567,19696,11741
29220,2.699,17434,12566,19698,11740
29240,2.661,17433,12565,19700,11740
29260,2.635,17431,12563,19701,11740
29280,2.582,17429,12562,19703,11740
29300,2.617,17427,12561,19705,11740
29320,2.57,17425,12560,19707,11740
29340,2.636,17424,12559,19708,11741
29360,2.649,17422,12559,19710,11741
29380,2.633,17420,12558,19712,11742
29400,2.654,17418,12557,19713,11742
29420,2.693,17416,12556,19715,11743
29440,2.677,17415,12556,19716,11743
29460,2.678,17414,12555,19717,11744
29480,2.77,17412,12554,19718,11744
29500,3.169,17411,12554,19719,11745
29520,3.775,17410,12553,19720,11746
29540,3.995,17409,12552,19720,11746
29560,4,17408,12551,19720,11747
29580,3.992,17407,12551,19719,11747
29600,4.005,17407,12550,19718,11748
29620,3.844,17406,12549,19717,11748
29640,3.469,17405,12548,19716,11749
29660,3.238,17404,12547,19715,11749
29680,3.081,17403,12546,19714,11750
29700,3.011,17402,12545,19712,11751
29720,2.947,17401,12544,19711,11752
29740,2.818,17400,12543,19711,11752
29760,2.812,17399,12542,19711,11753
29780,2.794,17398,12541,19711,11754
29800,2.805,17397,12540,19711,11755
29820,2.818,17396,12540,19712,11755
29840,2.891,17396,12540,19713,11756
29860,2.952,17395,12539,19715,11757
29880,2.958,17394,12539,19716,11757
29900,2.91,17394,12540,19718,11758
29920,2.877,17394,12540,19720,11759
29940,2.815,17394,12540,19723,11759
29960,2.751,17394,12541,19725,11760
29980,2.699,17394,12541,19727,11760
30000,2.65,17394,12542,19729,11761
30020,2.632,17394,12542,19731,11761
30040,2.652,17394,12543,19733,11762
30060,2.646,17394,12543,19735,11762
30080,2.596,17394,12544,19736,11763
30100,2.625,17394,12544,19738,11763
30120,2.654,17394,12544,19739,11764
30140,2.695,17394,12544,19740,11765
30160,2.724,17394,12545,19741,11765
30180,2.712,17394,12544,19742,11766
30200,2.686,17394,12544,19742,11766
30220,2.819,17394,12544,19743,11767
30240,3.238,17395,12544,19743,11768
30260,3.886,17395,12544,19743,11768
30280,3.992,17395,12544,19743,11769
30300,3.995,17396,12544,19743,11770
30320,3.998,17396,12544,19742,11770
30340,4.006,17396,12544,19741,11771
30360,3.819,17396,12544,19740,11771
30380,3.448,17396,12544,19739,11772
30400,3.157,17396,12544,19738,11773
30420,3.001,17396,12544,19737,11773
30440,2.938,17396,12544,19736,11774
30460,2.887,17396,12544,19735,11774
30480,2.77,17396,12544,19734,11775
30500,2.728,17396,12544,19733,11776
30520,2.741,17395,12543,19733,11776
30540,2.805,17395,12543,19733,11777
30560,2.804,17394,12543,19734,11777
30580,2.863,17394,12542,19734,11777
30600,2.887,17393,12542,19735,11778
30620,2.874,17393,12541,19736,11778
30640,2.833,17392,12541,19737,11778
30660,2.791,17391,12540,19738,11777
30680,2.712,17390,12539,19739,11777
30700,2.671,17389,12538,19740,11777
30720,2.615,17388,12537,19740,11777
30740,2.596,17387,12535,19741,11777
30760,2.558,17386,12534,19742,11777
30780,2.568,17385,12533,19742,11777
30800,2.561,17383,12532,19742,11778
30820,2.568,17382,12530,19743,11778
30840,2.618,17381,12529,19743,11780
30860,2.622,17380,12528,19743,11781
30880,2.577,17380,12527,19743,11782
30900,2.593,17379,12525,19743,11783
30920,2.59,17378,12524,19743,11785
30940,2.88,17377,12523,19743,11786
30960,3.42,17377,12522,19742,11787
30980,3.95,17376,12521,19742,11788
31000,3.992,17375,12519,19741,11788
31020,3.999,17374,12518,19740,11789
31040,3.984,17373,12517,19738,11789
31060,3.791,17372,12515,19737,11789
31080,3.456,17371,12514,19735,11790
31100,3.187,17370,12512,19733,11790
31120,2.972,17370,12511,19732,11791
31140,2.882,17369,12510,19730,11792
31160,2.828,17368,12509,19729,11793
31180,2.776,17367,12508,19728,11794
31200,2.695,17366,12507,19727,11795
31220,2.621,17366,12506,19727,11797
31240,2.706,17366,12505,19727,11798
31260,2.761,17366,12505,19727,11799
31280,2.85,17366,12504,19727,11800
31300,2.894,17366,12504,19728,11801
31320,2.889,17365,12503,19729,11801
31340,2.909,17365,12503,19729,11802
31360,2.766,17365,12503,19730,11801
31380,2.696,17365,12502,19731,11801
31400,2.668,17364,12502,19732,11801
31420,2.619,17364,12501,19733,11801
31440,2.575,17363,12501,19733,11800
31460,2.542,17362,12500,19734,11800
31480,2.552,17362,12499,19735,11800
31500,2.573,17361,12499,19736,11800
31520,2.6,17360,12498,19737,11800
31540,2.612,17360,12497,19738,11801
31560,2.593,17359,12496,19739,11801
31580,2.604,17359,12496,19739,11802
31600,2.597,17358,12495,19740,11803
31620,2.738,17358,12494,19740,11804
31640,3.197,17357,12493,19740,11804
31660,3.743,17357,12492,19739,11805
31680,3.999,17356,12491,19738,11806
31700,4,17356,12490,19737,11806
31720,3.993,17355,12489,19736,11807
31740,3.837,17355,12489,19734,11808
31760,3.532,17354,12488,19732,11808
31780,3.243,17353,12487,19731,11809
31800,3.001,17353,12486,19729,11809
31820,2.898,17353,12486,19727,11810
31840,2.812,17352,12485,19725,11810
31860,2.712,17353,12485,19724,11811
31880,2.679,17353,12485,19723,11811
31900,2.67,17353,12485,19722,11811
31920,2.695,17354,12485,19721,11811
31940,2.741,17355,12485,19721,11811
31960,2.822,17357,12485,19721,11811
31980,2.878,17359,12486,19721,11811
32000,2.849,17361,12487,19722,11811
32020,2.845,17363,12488,19722,11811
32040,2.805,17366,12489,19723,11811
32060,2.73,17368,12490,19724,11811
32080,2.688,17372,12491,19725,11811
32100,2.618,17375,12492,19726,11811
32120,2.597,17379,12494,19727,11812
32140,2.58,17383,12495,19728,11813
32160,2.548,17387,12497,19729,11814
32180,2.559,17391,12499,19731,11815
32200,2.607,17395,12501,19732,11816
32220,2.593,17400,12503,19733,11817
32240,2.615,17405,12505,19734,11819
32260,2.605,17409,12508,19736,11820
32280,2.66,17414,12510,19737,11821
32300,2.943,17419,12512,19737,11822
32320,3.508,17423,12514,19737,11823
32340,3.988,17428,12516,19737,11824
32360,3.995,17433,12519,19737,11825
32380,4,17437,12521,19736,11826
32400,3.93,17441,12522,19735,11827
32420,3.616,17446,12524,19734,11828
32440,3.263,17450,12526,19732,11829
32460,2.948,17455,12528,19730,11830
32480,2.796,17459,12530,19728,11830
32500,2.707,17463,12532,19725,11831
32520,2.654,17468,12534,19723,11832
32540,2.608,17472,12536,19721,11832
32560,2.589,17476,12538,19719,11833
32580,2.58,17480,12540,19718,11833
32600,2.688,17484,12541,19716,11833
32620,2.783,17488,12543,19715,11833
32640,2.832,17491,12545,19714,11833
32660,2.842,17495,12547,19714,11833
32680,2.811,17498,12549,19713,11833
32700,2.794,17501,12550,19713,11833
32720,2.728,17504,12551,19713,11833
32740,2.688,17507,12553,19713,11833
32760,2.625,17510,12554,19713,11833
32780,2.597,17513,12555,19713,11833
32800,2.59,17515,12556,19713,11833
32820,2.537,17518,12558,19714,11834
32840,2.555,17521,12559,19714,11834
32860,2.531,17523,12560,19714,11835
32880,2.485,17525,12561,19714,11835
32900,2.517,17528,12562,19714,11836
32920,2.654,17530,12564,19713,11836
32940,3.068,17532,12565,19712,11837
32960,3.523,17534,12565,19710,11837
32980,3.88,17535,12566,19709,11837
33000,3.908,17537,12567,19707,11837
33020,3.779,17538,12567,19704,11838
33040,3.501,17540,12567,19701,11838
33060,3.2,17541,12568,19698,11838
33080,3.025,17542,12568,19695,11838
33100,2.861,17543,12567,19692,11839
33120,2.71,17545,12567,19689,11839
33140,2.657,17546,12567,19686,11840
33160,2.577,17548,12567,19683,11841
33180,2.565,17549,12567,19680,11841
33200,2.579,17551,12566,19678,11842
33220,2.672,17552,12566,19676,11842
33240,2.758,17554,12565,19675,11842
33260,2.814,17555,12565,19673,11842
33280,2.867,17556,12564,19672,11843
33300,2.817,17557,12564,19672,11843
33320,2.789,17558,12563,19671,11842
33340,2.738,17559,12563,19671,11842
33360,2.696,17559,12562,19671,11842
33380,2.671,17560,12562,19671,11842
33400,2.65,17560,12562,19671,11842
33420,2.628,17561,12562,19671,11843
33440,2.579,17561,12562,19672,11843
33460,2.579,17561,12562,19673,11843
33480,2.502,17561,12562,19673,11843
33500,2.505,17561,12563,19674,11844
33520,2.502,17561,12563,19674,11844
33540,2.572,17561,12563,19674,11844
33560,2.915,17561,12563,19674,11844
33580,3.361,17560,12563,19673,11844
33600,3.82,17560,12562,19672,11843
33620,3.937,17560,12562,19671,11843
33640,3.827,17559,12561,19669,11842
33660,3.618,17558,12560,19667,11842
33680,3.32,17558,12559,19665,11842
33700,3.082,17557,12558,19663,11842
33720,2.894,17556,12557,19661,11842
33740,2.779,17555,12556,19660,11842
33760,2.675,17555,12555,19658,11842
33780,2.551,17554,12554,19657,11842
33800,2.503,17553,12553,19655,11842
33820,2.521,17552,12552,19654,11843
33840,2.594,17551,12551,19653,11843
33860,2.728,17550,12551,19653,11843
33880,2.839,17549,12550,19652,11843
33900,2.852,17548,12550,19652,11843
33920,2.896,17547,12549,19652,11842
33940,2.857,17546,12549,19652,11842
33960,2.815,17545,12548,19652,11841
33980,2.747,17544,12547,19653,11841
34000,2.65,17543,12546,19653,11840
34020,2.608,17541,12545,19654,11840
34040,2.607,17540,12545,19655,11840
34060,2.589,17539,12544,19656,11839
34080,2.605,17539,12543,19657,11839
34100,2.573,17538,12543,19658,11840
34120,2.555,17537,12543,19659,11840
34140,2.559,17537,12542,19660,11840
34160,2.656,17536,12542,19661,11840
34180,2.997,17536,12542,19662,11840
34200,3.527,17535,12542,19662,11840
34220,3.898,17535,12542,19662,11841
34240,3.979,17534,12542,19663,11841
34260,3.872,17534,12542,19662,11841
34280,3.628,17533,12541,19662,11841
34300,3.383,17532,12541,19662,11842
34320,3.18,17531,12541,19661,11842
34340,3.027,17529,12540,19660,11842
34360,2.891,17528,12540,19660,11843
34380,2.794,17527,12539,19660,11844
34400,2.745,17525,12539,19660,11844
34420,2.678,17523,12538,19660,11844
34440,2.666,17521,12538,19661,11844
34460,2.659,17519,12538,19661,11844
34480,2.754,17517,12537,19663,11844
34500,2.859,17514,12537,19664,11844
34520,2.909,17512,12536,19665,11843
34540,2.924,17510,12535,19667,11842
34560,2.853,17507,12535,19669,11842
34580,2.812,17505,12534,19671,11841
34600,2.772,17502,12533,19673,11840
34620,2.72,17499,12532,19675,11840
34640,2.663,17497,12531,19677,11839
34660,2.612,17495,12529,19680,11839
34680,2.575,17492,12528,19682,11839
34700,2.565,17490,12527,19684,11839
34720,2.562,17488,12526,19687,11839
34740,2.587,17485,12525,19689,11840
34760,2.596,17483,12524,19691,11840
34780,2.717,17481,12523,19693,11840
34800,3.092,17478,12521,19694,11840
34820,3.701,17476,12520,19695,11840
34840,4.005,17474,12519,19696,11840
34860,3.995,17471,12518,19697,11839
34880,3.978,17468,12517,19697,11839
34900,3.802,17466,12517,19697,11839
34920,3.539,17463,12516,19697,11839
34940,3.29,17460,12515,19696,11839
34960,3.095,17458,12515,19696,11840
34980,2.962,17455,12514,19696,11840
35000,2.903,17452,12514,19695,11840
35020,2.805,17450,12514,19696,11841
35040,2.755,17448,12514,19696,11841
35060,2.686,17445,12513,19697,11842
35080,2.659,17443,12513,19698,11842
35100,2.709,17441,12513,19699,11842
35120,2.798,17439,12513,19701,11842
35140,2.853,17436,12513,19703,11842
35160,2.899,17434,12512,19705,11842
35180,2.884,17431,12512,19707,11841
35200,2.817,17429,12511,19709,11841
35220,2.763,17427,12511,19711,11840
35240,2.685,17424,12510,19713,11839
35260,2.626,17422,12509,19715,11839
35280,2.611,17419,12509,19716,11838
35300,2.593,17417,12508,19718,11837
35320,2.596,17415,12507,19719,11837
35340,2.587,17413,12506,19721,11837
35360,2.561,17411,12505,19722,11836
35380,2.572,17409,12504,19723,11836
35400,2.577,17407,12503,19723,11836
35420,2.586,17405,12502,19724,11836
35440,2.77,17402,12501,19724,11835
35460,3.319,17400,12500,19724,11835
35480,3.88,17398,12498,19723,11835
35500,3.995,17396,12497,19722,11834
35520,3.995,17393,12496,19721,11834
35540,3.992,17391,12495,19720,11833
35560,3.923,17389,12493,19719,11833
35580,3.567,17386,12492,19717,11833
35600,3.256,17384,12491,19715,11833
35620,3.062,17381,12489,19713,11833
35640,2.961,17379,12488,19711,11833
35660,2.889,17376,12487,19709,11834
35680,2.822,17374,12486,19708,11834
35700,2.73,17372,12485,19706,11834
35720,2.677,17370,12484,19705,11834
35740,2.684,17368,12483,19704,11834
35760,2.723,17367,12482,19704,11834
35780,2.744,17365,12481,19703,11834
35800,2.815,17363,12480,19704,11834
35820,2.845,17362,12479,19704,11833
35840,2.843,17360,12478,19705,11833
35860,2.779,17359,12477,19706,11833
35880,2.727,17357,12477,19707,11832
35900,2.685,17356,12476,19708,11831
35920,2.642,17354,12475,19709,11831
35940,2.612,17353,12474,19710,11830
35960,2.597,17351,12473,19711,11830
35980,2.552,17349,12472,19712,11829
36000,2.547,17347,12471,19713,11829
36020,2.549,17345,12471,19714,11828
36040,2.556,17343,12470,19714,11828
36060,2.576,17341,12469,19715,11827
36080,2.589,17339,12468,19716,11827
36100,2.559,17337,12467,19716,11827
36120,2.672,17335,12466,19717,11827
36140,3.045,17333,12465,19717,11827
36160,3.667,17331,12464,19717,11827
36180,3.998,17329,12463,19717,11827
36200,3.996,17327,12462,19717,11827
36220,3.998,17326,12461,19717,11827
36240,3.847,17325,12461,19716,11828
36260,3.558,17323,12460,19715,11828
36280,3.278,17322,12459,19714,11829
36300,3.057,17321,12459,19713,11829
36320,2.971,17320,12458,19712,11829
36340,2.88,17320,12458,19711,11830
36360,2.832,17319,12458,19710,11830
36380,2.733,17318,12458,19709,11830
36400,2.654,17318,12458,19708,11830
36420,2.607,17317,12458,19707,11830
36440,2.614,17317,12458,19707,11830
36460,2.692,17316,12458,19707,11831
36480,2.688,17316,12458,19708,11831
36500,2.738,17315,12459,19708,11831
36520,2.762,17315,12459,19709,11831
36540,2.737,17314,12459,19711,11831
36560,2.671,17313,12459,19712,11831
36580,2.628,17313,12459,19714,11831
36600,2.593,17312,12458,19715,11832
36620,2.559,17311,12458,19717,11832
36640,2.521,17310,12458,19719,11832
36660,2.492,17309,12458,19721,11832
36680,2.447,17308,12458,19722,11833
36700,2.5,17307,12458,19724,11833
36720,2.509,17306,12458,19725,11833
36740,2.549,17305,12457,19726,11833
36760,2.57,17305,12457,19728,11833
36780,2.569,17304,12457,19729,11834
36800,2.538,17303,12457,19729,11834
36820,2.531,17303,12456,19730,11834
36840,2.549,17303,12456,19731,11834
36860,2.614,17303,12456,19731,11833
36880,2.954,17303,12455,19731,11833
36900,3.554,17303,12455,19731,11833
36920,3.986,17303,12455,19731,11833
36940,4,17303,12454,19730,11833
36960,3.992,17303,12454,19730,11833
36980,3.82,17303,12454,19729,11833
37000,3.55,17303,12454,19728,11833
37020,3.27,17303,12454,19727,11833
37040,3.063,17303,12454,19726,11834
37060,2.965,17303,12454,19724,11834
37080,2.898,17303,12454,19723,11835
37100,2.787,17303,12455,19723,11835
37120,2.72,17303,12455,19722,11836
37140,2.674,17303,12456,19721,11837
37160,2.666,17303,12456,19721,11838
37180,2.679,17303,12456,19721,11838
37200,2.684,17303,12457,19721,11839
37220,2.755,17303,12457,19722,11839
37240,2.801,17303,12458,19723,11840
37260,2.818,17303,12458,19724,11840
37280,2.768,17303,12458,19725,11840
37300,2.723,17303,12458,19726,11840
37320,2.66,17303,12459,19727,11840
37340,2.6,17303,12459,19728,11839
37360,2.576,17303,12459,19729,11839
37380,2.54,17303,12459,19730,11838
37400,2.52,17302,12460,19731,11838
37420,2.478,17302,12460,19732,11838
37440,2.498,17302,12460,19733,11838
37460,2.498,17302,12460,19734,11837
37480,2.492,17301,12460,19735,11837
37500,2.514,17301,12460,19735,11837
37520,2.554,17301,12460,19736,11837
37540,2.552,17301,12460,19736,11837
37560,2.549,17300,12460,19737,11837
37580,2.565,17300,12460,19737,11837
37600,2.577,17300,12459,19737,11836
37620,2.766,17299,12459,19737,11836
37640,3.217,17299,12458,19737,11836
37660,3.761,17299,12458,19737,11836
37680,4.005,17298,12457,19736,11836
37700,4.003,17298,12457,19736,11836
37720,3.897,17297,12456,19735,11836
37740,3.669,17297,12456,19734,11836
37760,3.355,17297,12455,19733,11836
37780,3.102,17296,12455,19731,11836
37800,2.92,17296,12455,19730,11837
37820,2.828,17296,12455,19729,11837
37840,2.777,17296,12455,19728,11838
37860,2.7,17296,12455,19727,11839
37880,2.619,17296,12455,19726,11839
37900,2.608,17297,12456,19726,11840
37920,2.643,17297,12456,19726,11840
37940,2.621,17297,12456,19726,11840
37960,2.727,17298,12457,19727,11840
37980,2.79,17298,12457,19727,11840
38000,2.822,17299,12457,19728,11839
38020,2.777,17299,12457,19729,11839
38040,2.741,17299,12457,19730,11838
38060,2.689,17299,12457,19731,11838
38080,2.628,17299,12457,19732,11838
38100,2.552,17299,12457,19733,11837
38120,2.51,17299,12457,19734,11837
38140,2.493,17298,12457,19735,11837
38160,2.456,17298,12456,19735,11837
38180,2.437,17298,12456,19736,11837
38200,2.418,17298,12455,19737,11837
38220,2.472,17298,12455,19737,11837
38240,2.499,17298,12455,19738,11837
38260,2.505,17298,12454,19738,11837
38280,2.51,17298,12454,19739,11837
38300,2.534,17299,12453,19739,11837
38320,2.542,17300,12453,19739,11837
38340,2.495,17301,12453,19739,11837
38360,2.514,17303,12453,19739,11837
38380,2.685,17305,12453,19738,11836
38400,3.193,17307,12454,19738,11836
38420,3.726,17309,12454,19737,11836
38440,3.956,17311,12455,19736,11836
38460,3.929,17313,12456,19735,11836
38480,3.74,17316,12456,19733,11836
38500,3.446,17319,12457,19732,11837
38520,3.217,17322,12458,19730,11838
38540,2.976,17325,12459,19729,11839
38560,2.832,17328,12461,19727,11840
38580,2.737,17331,12462,19726,11842
38600,2.682,17335,12464,19725,11843
38620,2.576,17338,12465,19724,11844
38640,2.505,17342,12467,19723,11846
38660,2.526,17346,12469,19723,11847
38680,2.579,17350,12471,19723,11848
38700,2.667,17354,12473,19723,11848
38720,2.714,17358,12475,19723,11849
38740,2.721,17362,12477,19724,11849
38760,2.728,17366,12479,19725,11849
38780,2.699,17370,12481,19726,11850
38800,2.686,17374,12483,19727,11850
38820,2.643,17377,12485,19728,11850
38840,2.544,17381,12487,19729,11850
38860,2.489,17385,12488,19730,11850
38880,2.493,17389,12490,19732,11850
38900,2.52,17393,12492,19733,11851
38920,2.464,17397,12493,19734,11851
38940,2.475,17401,12495,19736,11852
38960,2.439,17404,12497,19737,11853
38980,2.458,17408,12498,19737,11853
39000,2.51,17412,12500,19738,11854
39020,2.507,17417,12502,19739,11854
39040,2.535,17421,12503,19739,11854
39060,2.54,17425,12505,19740,11854
39080,2.512,17429,12506,19739,11855
39100,2.538,17434,12508,19739,11855
39120,2.759,17438,12510,19738,11855
39140,3.232,17442,12511,19737,11855
39160,3.757,17447,12513,19736,11856
39180,3.958,17451,12514,19735,11857
39200,3.891,17454,12516,19733,11857
39220,3.683,17458,12517,19731,11859
39240,3.395,17462,12519,19729,11860
39260,3.137,17466,12520,19727,11861
39280,2.882,17469,12522,19725,11863
39300,2.77,17473,12524,19722,11865
39320,2.653,17476,12526,19720,11866
39340,2.583,17480,12528,19718,11868
39360,2.509,17483,12530,19716,11869
39380,2.5,17486,12531,19715,11871
39400,2.548,17489,12533,19713,11872
39420,2.607,17492,12535,19712,11872
39440,2.709,17495,12537,19711,11873
39460,2.783,17498,12539,19711,11873
39480,2.824,17501,12540,19711,11873
39500,2.822,17504,12542,19711,11874
39520,2.747,17506,12544,19711,11874
39540,2.699,17509,12545,19711,11874
39560,2.646,17512,12547,19712,11874
39580,2.597,17514,12549,19713,11874
39600,2.565,17517,12551,19714,11875
39620,2.53,17520,12552,19715,11875
39640,2.514,17522,12554,19717,11876
39660,2.463,17525,12555,19718,11877
39680,2.485,17527,12557,19719,11877
39700,2.464,17530,12558,19720,11878
39720,2.477,17532,12559,19720,11879
39740,2.499,17533,12560,19720,11879
39760,2.519,17535,12561,19720,11879
39780,2.5,17536,12562,19720,11879
39800,2.521,17537,12562,19719,11879
39820,2.759,17538,12562,19717,11878
39840,3.245,17538,12562,19716,11878
39860,3.652,17538,12562,19714,11877
39880,3.89,17538,12562,19712,11876
39900,3.831,17538,12562,19710,11875
39920,3.581,17538,12561,19708,11874
39940,3.297,17537,12561,19706,11874
39960,3.021,17537,12560,19704,11874
39980,2.831,17536,12559,19702,11874
40000,2.719,17536,12558,19700,11875
40020,2.615,17535,12557,19699,11875
40040,2.527,17534,12557,19698,11876
40060,2.444,17534,12556,19697,11876
40080,2.493,17533,12555,19697,11877
40100,2.591,17532,12554,19697,11877
40120,2.713,17531,12553,19696,11877
40140,2.821,17529,12551,19696,11877
40160,2.866,17528,12550,19696,11876
40180,2.912,17526,12549,19696,11876
40200,2.896,17525,12548,19696,11875
40220,2.838,17523,12546,19696,11874
40240,2.749,17521,12545,19697,11873
40260,2.666,17520,12544,19697,11872
40280,2.624,17518,12543,19698,11871
40300,2.534,17517,12543,19698,11870
40320,2.528,17516,12542,19699,11870
40340,2.488,17515,12542,19700,11869
40360,2.527,17515,12541,19702,11869
40380,2.528,17514,12541,19703,11869
40400,2.555,17514,12541,19705,11870
40420,2.549,17514,12541,19706,11870
40440,2.541,17514,12541,19708,11871
40460,2.568,17514,12541,19709,11871
40480,2.638,17514,12541,19710,11871
40500,3,17514,12541,19711,11871
40520,3.574,17513,12541,19712,11871
40540,3.999,17512,12541,19712,11872
40560,3.995,17511,12540,19712,11872
40580,3.998,17510,12539,19712,11872
40600,3.833,17508,12539,19711,11872
40620,3.495,17506,12538,19711,11872
40640,3.176,17504,12537,19710,11872
40660,2.947,17502,12536,19709,11872
40680,2.791,17499,12535,19708,11873
40700,2.696,17497,12534,19707,11873
40720,2.621,17494,12533,19707,11873
40740,2.569,17491,12532,19706,11873
40760,2.577,17488,12531,19706,11873
40780,2.617,17485,12529,19706,11872
40800,2.726,17482,12528,19706,11871
40820,2.812,17479,12527,19707,11870
40840,2.894,17475,12526,19707,11869
40860,2.905,17471,12524,19708,11868
40880,2.854,17467,12523,19709,11867
40900,2.783,17463,12522,19711,11865
40920,2.679,17460,12521,19712,11864
40940,2.615,17456,12520,19714,11863
40960,2.589,17452,12519,19716,11862
40980,2.545,17448,12518,19718,11861
41000,2.526,17445,12517,19720,11860
41020,2.502,17442,12516,19722,11859
41040,2.523,17439,12515,19724,11858
41060,2.528,17436,12514,19726,11857
41080,2.502,17433,12513,19727,11857
41100,2.512,17430,12512,19729,11856
41120,2.53,17428,12511,19730,11855
41140,2.741,17425,12510,19731,11854
41160,3.234,17422,12509,19732,11854
41180,3.835,17420,12508,19733,11853
41200,3.999,17417,12507,19733,11853
41220,4.006,17414,12506,19732,11852
41240,3.992,17411,12504,19732,11852
41260,3.782,17408,12503,19731,11852
41280,3.483,17405,12501,19729,11852
41300,3.192,17402,12500,19728,11852
41320,2.958,17399,12498,19726,11852
41340,2.867,17396,12496,19725,11852
41360,2.8,17393,12494,19723,11853
41380,2.707,17389,12493,19722,11853
41400,2.654,17386,12491,19721,11853
41420,2.615,17383,12489,19720,11853
41440,2.597,17380,12488,19719,11853
41460,2.692,17376,12486,19719,11853
41480,2.749,17373,12485,19719,11853
41500,2.811,17370,12484,19720,11852
41520,2.835,17367,12482,19720,11852
41540,2.824,17365,12481,19721,11851
41560,2.768,17362,12480,19722,11850
41580,2.717,17359,12479,19724,11850
41600,2.656,17357,12479,19725,11849
41620,2.589,17355,12478,19727,11848
41640,2.514,17353,12477,19729,11847
41660,2.503,17351,12477,19731,11847
41680,2.496,17349,12476,19732,11846
41700,2.53,17348,12476,19734,11845
41720,2.524,17346,12475,19735,11845
41740,2.538,17345,12475,19736,11844
41760,2.572,17343,12475,19737,11844
41780,2.544,17341,12474,19738,11844
41800,2.65,17339,12474,19739,11844
41820,3.099,17337,12473,19739,11844
41840,3.672,17335,12473,19739,11844
41860,3.975,17333,12472,19738,11844
41880,3.965,17331,12471,19738,11844
41900,3.807,17329,12470,19737,11844
41920,3.611,17327,12469,19736,11844
41940,3.347,17325,12468,19734,11844
41960,3.12,17323,12467,19733,11845
41980,2.915,17321,12466,19732,11845
42000,2.811,17319,12465,19730,11845
42020,2.765,17317,12464,19729,11845
42040,2.717,17315,12463,19728,11846
42060,2.653,17314,12462,19727,11846
42080,2.604,17313,12462,19727,11846
42100,2.569,17311,12461,19727,11846
42120,2.584,17310,12461,19727,11846
42140,2.643,17309,12461,19728,11846
42160,2.671,17309,12461,19729,11847
42180,2.703,17308,12461,19730,11847
42200,2.709,17307,12461,19731,11847
42220,2.705,17306,12461,19732,11847
42240,2.689,17305,12461,19734,11847
42260,2.631,17304,12461,19735,11848
42280,2.527,17303,12461,19737,11848
42300,2.516,17302,12460,19738,11848
42320,2.502,17301,12460,19740,11848
42340,2.503,17300,12460,19741,11848
42360,2.478,17299,12460,19742,11848
42380,2.475,17297,12460,19743,11848
42400,2.486,17296,12460,19745,11849
42420,2.5,17295,12459,19746,11849
42440,2.503,17294,12459,19747,11848
42460,2.517,17293,12459,19748,11848
42480,2.766,17292,12458,19748,11848
42500,3.288,17290,12458,19748,11848
42520,3.751,17289,12457,19748,11848
42540,3.94,17288,12457,19748,11848
42560,3.847,17287,12456,19748,11847
42580,3.631,17286,12456,19747,11847
42600,3.39,17285,12455,19746,11847
42620,3.134,17284,12454,19744,11847
42640,2.996,17283,12454,19743,11847
42660,2.875,17282,12454,19742,11847
42680,2.818,17281,12453,19741,11847
42700,2.734,17281,12453,19740,11847
42720,2.645,17280,12453,19739,11847
42740,2.596,17279,12453,19738,11847
42760,2.575,17279,12452,19737,11848
42780,2.612,17279,12452,19737,11848
42800,2.642,17278,12452,19737,11849
42820,2.649,17278,12452,19737,11849
42840,2.712,17278,12452,19738,11849
42860,2.738,17279,12452,19739,11850
42880,2.716,17279,12451,19740,11850
42900,2.682,17279,12451,19741,11850
42920,2.632,17279,12451,19742,11850
42940,2.575,17279,12451,19743,11850
42960,2.544,17280,12450,19744,11850
42980,2.51,17280,12450,19745,11850
43000,2.486,17280,12450,19746,11850
43020,2.491,17280,12450,19747,11849
43040,2.47,17280,12450,19748,11849
43060,2.477,17279,12450,19749,11848
43080,2.485,17279,12450,19750,11848
43100,2.514,17279,12450,19750,11847
43120,2.481,17278,12451,19751,11847
43140,2.531,17278,12451,19751,11847
43160,2.843,17277,12451,19751,11847
43180,3.326,17277,12451,19751,11847
43200,3.722,17276,12451,19750,11847
43220,3.881,17275,12451,19749,11847
43240,3.792,17275,12451,19748,11847
43260,3.582,17274,12451,19747,11847
43280,3.294,17274,12451,19746,11848
43300,3.115,17273,12450,19744,11848
43320,2.945,17273,12450,19743,11848
43340,2.838,17273,12450,19741,11849
43360,2.794,17273,12450,19740,11849
43380,2.763,17273,12450,19738,11850
43400,2.663,17273,12450,19737,11850
43420,2.614,17274,12450,19736,11850
43440,2.603,17275,12450,19736,11851
43460,2.625,17275,12451,19735,11851
43480,2.675,17277,12451,19736,11851
43500,2.7,17278,12452,19736,11851
43520,2.737,17279,12452,19737,11850
43540,2.734,17281,12453,19738,11850
43560,2.724,17283,12454,19739,11849
43580,2.666,17285,12455,19740,11849
43600,2.583,17287,12456,19741,11849
43620,2.514,17289,12457,19742,11848
43640,2.496,17291,12458,19743,11848
43660,2.527,17294,12459,19744,11847
43680,2.481,17297,12460,19745,11847
43700,2.505,17299,12461,19745,11847
43720,2.517,17303,12462,19745,11847
43740,2.533,17306,12463,19746,11848
43760,2.563,17309,12464,19746,11848
43780,2.593,17313,12465,19746,11849
43800,2.572,17316,12466,19746,11849
43820,2.573,17320,12467,19746,11850
43840,2.625,17324,12468,19745,11851
43860,2.901,17327,12469,19745,11852
43880,3.393,17331,12470,19744,11853
43900,3.775,17335,12471,19744,11853
43920,3.925,17338,12472,19743,11854
43940,3.851,17342,12473,19742,11855
43960,3.631,17346,12474,19741,11856
43980,3.383,17349,12476,19740,11857
44000,3.155,17353,12477,19739,11858
44020,2.989,17357,12478,19737,11859
44040,2.891,17361,12480,19736,11860
44060,2.835,17365,12481,19735,11861
44080,2.763,17369,12483,19734,11862
44100,2.691,17374,12485,19733,11863
44120,2.635,17378,12487,19732,11863
44140,2.626,17382,12489,19731,11864
44160,2.64,17386,12491,19730,11864
44180,2.724,17390,12493,19730,11865
44200,2.794,17394,12495,19730,11865
44220,2.836,17398,12497,19730,11866
44240,2.829,17402,12499,19730,11866
44260,2.779,17406,12500,19730,11867
44280,2.744,17409,12502,19730,11867
44300,2.656,17413,12504,19731,11867
44320,2.633,17416,12506,19732,11868
44340,2.582,17420,12508,19732,11868
44360,2.589,17423,12510,19733,11869
44380,2.572,17427,12512,19734,11869
44400,2.556,17430,12514,19736,11870
44420,2.593,17434,12516,19737,11871
44440,2.587,17437,12518,19738,11871
44460,2.556,17441,12521,19739,11872
44480,2.586,17445,12523,19739,11872
44500,2.563,17448,12526,19739,11873
44520,2.547,17452,12528,19739,11873
44540,2.686,17455,12530,19739,11874
44560,3.027,17459,12532,19738,11874
44580,3.47,17462,12534,19737,11874
44600,3.793,17466,12535,19736,11875
44620,3.823,17469,12537,19734,11875
44640,3.658,17472,12538,19732,11875
44660,3.445,17476,12539,19729,11876
44680,3.214,17479,12540,19727,11876
44700,3.004,17482,12540,19725,11877
44720,2.85,17485,12541,19722,11877
44740,2.765,17488,12542,19720,11878
44760,2.717,17491,12543,19719,11879
44780,2.629,17494,12543,19717,11880
44800,2.6,17496,12544,19716,11882
44820,2.619,17498,12544,19715,11883
44840,2.667,17500,12545,19714,11884
44860,2.728,17502,12545,19714,11885
44880,2.821,17503,12546,19713,11885
44900,2.852,17504,12546,19713,11886
44920,2.804,17504,12546,19714,11886
44940,2.773,17504,12546,19714,11886
44960,2.752,17504,12546,19714,11886
44980,2.713,17503,12546,19715,11885
45000,2.664,17502,12545,19715,11884
45020,2.635,17500,12544,19716,11883
45040,2.603,17498,12544,19716,11882
45060,2.597,17496,12543,19717,11881
45080,2.566,17494,12542,19718,11880
45100,2.562,17491,12541,19718,11879
45120,2.604,17489,12540,19719,11878
45140,2.594,17487,12538,19719,11877
45160,2.586,17484,12537,19720,11876
45180,2.562,17481,12535,19720,11875
45200,2.603,17478,12533,19720,11875
45220,2.71,17475,12531,19719,11874
45240,3.055,17472,12530,19719,11873
45260,3.463,17468,12528,19718,11872
45280,3.774,17465,12526,19717,11871
45300,3.775,17461,12524,19716,11870
45320,3.646,17457,12522,19715,11869
45340,3.388,17453,12520,19713,11869
45360,3.148,17449,12518,19712,11868
45380,2.982,17446,12517,19711,11868
45400,2.843,17442,12515,19710,11867
45420,2.758,17438,12514,19709,11867
45440,2.691,17435,12513,19709,11868
45460,2.618,17431,12512,19710,11868
45480,2.622,17428,12511,19710,11868
45500,2.638,17425,12511,19712,11869
45520,2.705,17422,12511,19713,11870
45540,2.772,17419,12510,19715,11870
45560,2.791,17417,12510,19718,11871
45580,2.821,17414,12509,19721,11872
45600,2.831,17411,12509,19724,11872
45620,2.831,17408,12509,19726,11872
45640,2.819,17406,12508,19729,11872
45660,2.744,17403,12508,19732,11872
45680,2.698,17401,12508,19735,11872
45700,2.652,17398,12508,19738,11871
45720,2.612,17396,12508,19740,11871
45740,2.596,17394,12507,19743,11871
45760,2.66,17392,12507,19745,11870
45780,2.608,17389,12507,19748,11870
45800,2.622,17387,12507,19750,11870
45820,2.619,17385,12507,19752,11870
45840,2.622,17383,12507,19754,11870
45860,2.635,17381,12507,19756,11870
45880,2.6,17378,12506,19758,11871
45900,2.608,17376,12506,19760,11871
45920,2.734,17374,12506,19761,11871
45940,3.147,17371,12505,19762,11871
45960,3.666,17369,12505,19762,11871
45980,3.992,17366,12504,19762,11871
46000,3.991,17363,12503,19761,11871
46020,3.937,17360,12502,19760,11871
46040,3.725,17357,12500,19758,11870
46060,3.43,17354,12499,19756,11870
46080,3.162,17351,12497,19753,11869
46100,3.003,17348,12495,19750,11868
46120,2.917,17345,12493,19747,11867
46140,2.857,17341,12491,19745,11866
46160,2.797,17338,12488,19742,11865
46180,2.735,17335,12486,19739,11864
46200,2.646,17332,12484,19737,11864
46220,2.672,17330,12482,19736,11863
46240,2.689,17327,12480,19735,11862
46260,2.808,17324,12479,19734,11862
46280,2.84,17322,12477,19734,11861
46300,2.856,17320,12476,19734,11861
46320,2.901,17318,12474,19735,11860
46340,2.825,17316,12473,19736,11860
46360,2.805,17314,12472,19737,11859
46380,2.726,17312,12471,19739,11859
46400,2.672,17310,12470,19741,11859
46420,2.604,17309,12469,19742,11858
46440,2.6,17307,12468,19744,11858
46460,2.608,17305,12467,19746,11858
46480,2.583,17304,12467,19748,11858
46500,2.589,17302,12466,19750,11858
46520,2.6,17300,12465,19751,11858
46540,2.591,17299,12465,19753,11858
46560,2.629,17297,12464,19755,11858
46580,2.642,17296,12464,19756,11857
46600,2.639,17294,12464,19757,11857
46620,2.647,17293,12464,19759,11857
46640,2.615,17292,12464,19759,11856
46660,2.776,17290,12464,19760,11856
46680,3.171,17289,12464,19761,11856
46700,3.754,17288,12464,19761,11855
46720,3.995,17287,12464,19761,11855
46740,3.993,17286,12464,19761,11855
46760,3.992,17285,12464,19761,11855
46780,3.819,17284,12464,19761,11855
46800,3.504,17284,12464,19760,11856
46820,3.248,17283,12464,19759,11857
46840,3.075,17282,12464,19759,11858
46860,2.983,17282,12464,19758,11859
46880,2.929,17282,12464,19758,11860
46900,2.856,17281,12464,19758,11861
46920,2.751,17281,12464,19757,11862
46940,2.689,17282,12464,19758,11864
46960,2.677,17282,12465,19758,11864
46980,2.72,17282,12465,19759,11865
47000,2.741,17282,12465,19760,11866
47020,2.796,17283,12466,19761,11866
47040,2.845,17283,12466,19763,11866
47060,2.87,17283,12466,19764,11866
47080,2.807,17284,12466,19765,11866
47100,2.782,17284,12466,19767,11866
47120,2.707,17284,12466,19768,11866
47140,2.672,17284,12467,19770,11865
47160,2.646,17284,12467,19771,11865
47180,2.601,17283,12467,19772,11864
47200,2.596,17283,12467,19774,11864
47220,2.576,17283,12467,19775,11864
47240,2.561,17282,12466,19775,11864
47260,2.605,17282,12466,19776,11864
47280,2.58,17282,12466,19777,11864
47300,2.597,17282,12466,19778,11864
47320,2.611,17282,12466,19778,11864
47340,2.628,17282,12466,19779,11864
47360,2.666,17283,12466,19779,11864
47380,2.614,17284,12466,19779,11864
47400,2.678,17285,12466,19779,11864
47420,2.986,17286,12467,19778,11864
47440,3.574,17288,12467,19778,11865
47460,3.995,17290,12468,19777,11865
47480,3.992,17292,12469,19776,11866
47500,3.985,17295,12469,19775,11867
47520,3.821,17298,12470,19773,11868
47540,3.518,17301,12471,19772,11869
47560,3.245,17304,12472,19770,11870
47580,3.015,17308,12474,19768,11871
47600,2.915,17311,12475,19767,11872
47620,2.842,17315,12477,19765,11873
47640,2.798,17320,12478,19764,11874
47660,2.721,17324,12480,19763,11875
47680,2.679,17328,12481,19762,11876
47700,2.635,17332,12483,19761,11877
47720,2.684,17337,12485,19761,11877
47740,2.714,17341,12486,19761,11878
47760,2.786,17345,12488,19761,11878
47780,2.812,17349,12490,19762,11878
47800,2.833,17353,12492,19762,11878
47820,2.822,17357,12493,19763,11879
47840,2.766,17361,12495,19764,11879
47860,2.731,17365,12497,19765,11879
47880,2.689,17369,12498,19766,11879
47900,2.618,17372,12500,19767,11879
47920,2.559,17376,12501,19768,11879
47940,2.495,17380,12503,19769,11879
47960,2.519,17384,12505,19771,11879
47980,2.537,17388,12506,19772,11879
48000,2.552,17392,12508,19773,11880
48020,2.576,17396,12509,19774,11880
48040,2.577,17401,12511,19775,11881
48060,2.58,17405,12513,19775,11881
48080,2.597,17409,12514,19776,11882
48100,2.598,17413,12516,19776,11882
48120,2.576,17417,12517,19776,11883
48140,2.772,17421,12518,19775,11883
48160,3.186,17425,12520,19775,11884
48180,3.702,17428,12521,19774,11884
48200,3.967,17432,12522,19772,11885
48220,3.968,17436,12524,19771,11885
48240,3.807,17439,12525,19769,11886
48260,3.533,17442,12526,19767,11887
48280,3.295,17445,12527,19764,11887
48300,3.062,17448,12529,19762,11888
48320,2.861,17452,12530,19759,11889
48340,2.779,17455,12531,19756,11890
48360,2.733,17458,12533,19754,11892
48380,2.695,17461,12534,19751,11893
48400,2.632,17464,12535,19749,11893
48420,2.628,17467,12536,19747,11894
48440,2.663,17470,12537,19745,11895
48460,2.719,17473,12538,19743,11895
48480,2.814,17475,12539,19742,11895
48500,2.832,17478,12539,19741,11895
48520,2.854,17480,12540,19740,11895
48540,2.812,17483,12540,19739,11895
48560,2.77,17485,12541,19739,11894
48580,2.744,17487,12541,19739,11894
48600,2.663,17489,12542,19739,11893
48620,2.628,17490,12542,19739,11892
48640,2.611,17492,12543,19740,11892
48660,2.57,17493,12544,19741,11891
48680,2.535,17494,12544,19741,11891
48700,2.568,17494,12545,19742,11890
48720,2.556,17495,12546,19743,11890
48740,2.589,17495,12547,19743,11889
48760,2.605,17494,12547,19744,11889
48780,2.6,17494,12548,19744,11888
48800,2.556,17493,12548,19744,11888
48820,2.587,17492,12548,19744,11887
48840,2.755,17490,12547,19744,11886
48860,3.158,17489,12546,19743,11886
48880,3.646,17486,12545,19743,11885
48900,3.939,17484,12544,19741,11884
48920,3.943,17481,12542,19740,11884
48940,3.77,17478,12540,19739,11883
48960,3.522,17475,12538,19738,11883
48980,3.215,17471,12536,19736,11882
49000,2.996,17467,12533,19735,11882
49020,2.831,17463,12531,19733,11882
49040,2.73,17460,12528,19732,11882
49060,2.642,17455,12526,19731,11882
49080,2.579,17451,12523,19730,11882
49100,2.572,17447,12521,19729,11882
49120,2.611,17443,12518,19729,11882
49140,2.672,17438,12516,19728,11881
49160,2.812,17434,12514,19728,11880
49180,2.87,17429,12511,19728,11879
49200,2.898,17425,12509,19728,11878
49220,2.857,17420,12507,19727,11877
49240,2.798,17416,12504,19727,11876
49260,2.759,17411,12502,19727,11874
49280,2.688,17407,12500,19728,11873
49300,2.659,17402,12498,19728,11872
49320,2.579,17398,12496,19728,11871
49340,2.576,17394,12494,19728,11870
49360,2.558,17390,12492,19729,11870
49380,2.561,17386,12490,19729,11869
49400,2.538,17382,12489,19730,11868
49420,2.53,17378,12487,19731,11868
49440,2.544,17375,12486,19731,11867
49460,2.544,17371,12484,19732,11866
49480,2.537,17368,12482,19733,11865
49500,2.503,17364,12481,19733,11865
49520,2.576,17361,12479,19733,11864
49540,2.787,17358,12477,19733,11863
49560,3.236,17354,12475,19733,11862
49580,3.693,17351,12473,19732,11861
49600,3.926,17348,12471,19731,11860
49620,3.901,17344,12469,19730,11859
49640,3.69,17341,12466,19728,11859
49660,3.379,17338,12464,19726,11858
49680,3.155,17335,12462,19723,11858
49700,2.964,17332,12460,19721,11858
49720,2.801,17329,12458,19719,11858
49740,2.745,17326,12456,19717,11858
49760,2.709,17323,12455,19715,11859
49780,2.654,17321,12453,19714,11859
49800,2.605,17319,12452,19714,11859
49820,2.598,17317,12451,19714,11859
49840,2.632,17315,12451,19714,11859
49860,2.712,17313,12450,19715,11859
49880,2.734,17311,12449,19716,11859
49900,2.758,17309,12449,19718,11859
49920,2.773,17307,12448,19720,11858
49940,2.742,17306,12448,19723,11858
49960,2.689,17304,12447,19725,11857
49980,2.639,17302,12446,19727,11856
50000,2.577,17300,12446,19730,11855
50020,2.558,17299,12445,19732,11854
50040,2.53,17297,12444,19734,11853
50060,2.509,17295,12443,19736,11852
50080,2.482,17293,12442,19738,11851
50100,2.467,17291,12441,19739,11851
50120,2.478,17290,12440,19741,11850
50140,2.503,17288,12439,19742,11850
50160,2.514,17286,12439,19743,11850
50180,2.563,17285,12438,19744,11850
50200,2.551,17283,12437,19744,11850
50220,2.568,17282,12437,19745,11850
50240,2.579,17280,12436,19745,11850
50260,2.875,17279,12436,19745,11850
50280,3.354,17277,12435,19745,11850
50300,3.751,17276,12434,19744,11851
50320,3.928,17274,12434,19743,11851
50340,3.859,17273,12433,19742,11851
50360,3.62,17271,12433,19740,11851
50380,3.39,17270,12432,19739,11851
50400,3.131,17268,12432,19737,11851
50420,2.959,17267,12432,19736,11851
50440,2.861,17266,12431,19734,11851
50460,2.819,17265,12431,19733,11852
50480,2.762,17264,12431,19732,11852
50500,2.696,17263,12431,19731,11852
50520,2.619,17262,12431,19731,11853
50540,2.587,17262,12432,19730,11853
50560,2.647,17262,12432,19731,11854
50580,2.685,17262,12432,19731,11854
50600,2.716,17262,12433,19732,11854
50620,2.748,17262,12434,19733,11854
50640,2.79,17262,12434,19734,11854
50660,2.759,17262,12434,19735,11854
50680,2.686,17262,12435,19736,11853
50700,2.649,17262,12435,19737,11853
50720,2.618,17262,12435,19738,11852
50740,2.577,17263,12435,19739,11851
50760,2.533,17263,12435,19739,11851
50780,2.523,17263,12434,19740,11850
50800,2.514,17263,12434,19741,11849
50820,2.53,17264,12434,19741,11849
50840,2.542,17265,12433,19742,11848
50860,2.509,17265,12433,19742,11848
50880,2.551,17267,12432,19743,11847
50900,2.542,17268,12432,19743,11847
50920,2.547,17270,12432,19744,11846
50940,2.554,17272,12432,19744,11846
50960,2.514,17274,12433,19744,11846
50980,2.611,17277,12433,19744,11846
51000,3.003,17279,12434,19744,11846
51020,3.49,17283,12435,19744,11845
51040,3.792,17286,12437,19743,11846
51060,3.828,17289,12438,19743,11846
51080,3.693,17293,12440,19741,11846
51100,3.455,17297,12442,19740,11847
51120,3.224,17301,12444,19739,11848
51140,2.962,17305,12446,19737,11849
51160,2.894,17309,12448,19736,11850
51180,2.777,17313,12450,19734,11852
51200,2.754,17317,12452,19733,11853
51220,2.72,17322,12454,19732,11855
51240,2.682,17326,12457,19731,11857
51260,2.64,17331,12459,19730,11859
51280,2.66,17335,12462,19729,11860
51300,2.72,17340,12464,19729,11861
51320,2.78,17344,12466,19729,11862
51340,2.821,17349,12468,19729,11863
51360,2.829,17353,12470,19729,11864
51380,2.838,17357,12473,19730,11864
51400,2.798,17361,12475,19731,11864
51420,2.756,17365,12476,19731,11864
51440,2.714,17369,12478,19732,11865
51460,2.666,17373,12480,19733,11865
51480,2.621,17376,12482,19734,11865
51500,2.579,17380,12484,19735,11865
51520,2.556,17384,12486,19736,11865
51540,2.554,17387,12487,19737,11866
51560,2.572,17391,12489,19739,11866
51580,2.566,17395,12491,19740,11867
51600,2.579,17398,12492,19741,11867
51620,2.589,17402,12494,19742,11868
51640,2.61,17406,12496,19743,11869
51660,2.589,17410,12497,19744,11869
51680,2.598,17414,12499,19745,11869
51700,2.709,17417,12500,19745,11870
51720,3.113,17421,12502,19745,11870
51740,3.572,17425,12503,19744,11871
51760,3.883,17429,12504,19743,11871
51780,3.901,17433,12506,19742,11872
51800,3.743,17436,12507,19740,11872
51820,3.501,17440,12508,19738,11873
51840,3.242,17444,12510,19735,11874
51860,3.045,17448,12511,19732,11874
51880,2.873,17451,12512,19730,11875
51900,2.759,17455,12514,19727,11876
51920,2.705,17458,12515,19724,11877
51940,2.657,17461,12516,19722,11878
51960,2.597,17464,12517,19720,11879
51980,2.568,17466,12518,19718,11879
52000,2.645,17468,12519,19717,11880
52020,2.726,17470,12519,19715,11880
52040,2.786,17471,12520,19715,11880
52060,2.818,17471,12520,19714,11880
52080,2.817,17471,12520,19714,11879
52100,2.8,17471,12519,19714,11878
52120,2.79,17470,12518,19714,11878
52140,2.693,17469,12518,19714,11877
52160,2.666,17468,12517,19715,11876
52180,2.666,17466,12516,19716,11874
52200,2.619,17464,12514,19716,11873
52220,2.608,17461,12513,19717,11872
52240,2.61,17459,12512,19718,11871
52260,2.612,17456,12511,19719,11871
52280,2.587,17453,12509,19720,11870
52300,2.597,17451,12508,19721,11869
52320,2.615,17448,12507,19722,11868
52340,2.594,17445,12505,19723,11867
52360,2.603,17442,12504,19724,11867
52380,2.61,17438,12502,19724,11866
52400,2.747,17435,12501,19723,11865
52420,3.187,17431,12499,19723,11865
52440,3.631,17428,12497,19722,11864
52460,3.877,17424,12495,19720,11864
52480,3.865,17420,12493,19719,11863
52500,3.721,17416,12491,19717,11863
52520,3.434,17411,12489,19714,11863
52540,3.194,17407,12487,19712,11863
52560,2.992,17403,12485,19710,11863
52580,2.853,17398,12483,19708,11862
52600,2.803,17394,12481,19706,11862
52620,2.721,17389,12479,19704,11862
52640,2.621,17385,12477,19702,11862
52660,2.604,17380,12475,19701,11861
52680,2.624,17376,12473,19700,11861
52700,2.692,17372,12471,19699,11860
52720,2.772,17368,12470,19699,11859
52740,2.808,17365,12468,19699,11858
52760,2.84,17361,12467,19699,11857
52780,2.821,17358,12465,19700,11855
52800,2.811,17355,12463,19700,11854
52820,2.744,17352,12461,19700,11853
52840,2.674,17349,12459,19701,11852
52860,2.666,17346,12457,19701,11850
52880,2.636,17343,12455,19702,11849
52900,2.589,17340,12453,19702,11847
52920,2.545,17337,12451,19702,11846
52940,2.554,17334,12449,19702,11845
52960,2.534,17331,12446,19702,11843
52980,2.53,17328,12444,19701,11842
53000,2.566,17325,12441,19701,11841
53020,2.607,17322,12439,19700,11839
53040,2.612,17318,12436,19699,11838
53060,2.624,17315,12433,19698,11837
53080,2.636,17312,12430,19697,11836
53100,2.633,17309,12427,19696,11835
53120,2.857,17306,12424,19695,11835
53140,3.396,17302,12421,19693,11834
53160,3.916,17299,12418,19692,11833
53180,3.989,17296,12415,19691,11833
53200,4.005,17293,12413,19689,11833
53220,3.919,17290,12410,19687,11833
53240,3.681,17287,12408,19685,11833
53260,3.417,17284,12405,19683,11833
53280,3.2,17281,12403,19681,11832
53300,3.063,17277,12401,19678,11832
53320,3.001,17274,12399,19676,11832
53340,2.938,17271,12397,19674,11832
53360,2.867,17268,12395,19672,11831
53380,2.72,17265,12394,19670,11831
53400,2.702,17262,12392,19669,11830
53420,2.699,17259,12391,19668,11829
53440,2.762,17257,12390,19668,11828
53460,2.815,17255,12389,19668,11827
53480,2.857,17253,12388,19668,11826
53500,2.888,17251,12387,19669,11825
53520,2.859,17250,12387,19670,11825
53540,2.826,17248,12386,19671,11824
53560,2.791,17248,12386,19673,11823
53580,2.726,17247,12385,19675,11823
53600,2.671,17246,12385,19677,11822
53620,2.639,17246,12385,19678,11822
53640,2.596,17245,12384,19680,11822
53660,2.562,17245,12384,19682,11821
53680,2.573,17244,12383,19684,11821
53700,2.596,17244,12382,19685,11821
53720,2.633,17243,12382,19686,11821
53740,2.607,17243,12381,19687,11821
53760,2.646,17242,12381,19689,11821
53780,2.668,17241,12380,19689,11821
53800,2.671,17241,12380,19690,11821
53820,2.666,17240,12380,19691,11821
53840,2.652,17239,12380,19691,11821
53860,2.84,17239,12380,19691,11821
53880,3.306,17239,12380,19691,11822
53900,3.852,17238,12380,19690,11822
53920,4,17238,12380,19689,11822
53940,3.998,17238,12380,19688,11822
53960,3.982,17238,12380,19687,11823
53980,3.8,17238,12381,19686,11823
54000,3.518,17238,12381,19685,11824
54020,3.246,17238,12381,19683,11824
54040,3.057,17238,12382,19682,11825
54060,2.969,17239,12382,19681,11826
54080,2.885,17240,12383,19680,11826
54100,2.815,17241,12384,19679,11827
54120,2.745,17242,12385,19679,11828
54140,2.702,17245,12386,19679,11828
54160,2.7,17247,12387,19679,11829
54180,2.748,17250,12389,19679,11830
54200,2.818,17254,12391,19680,11830
54220,2.895,17258,12393,19681,11831
54240,2.906,17262,12396,19682,11831
54260,2.881,17266,12398,19683,11832
54280,2.857,17271,12401,19685,11833
54300,2.796,17276,12403,19687,11833
54320,2.727,17281,12406,19688,11834
54340,2.689,17286,12409,19690,11835
54360,2.659,17291,12412,19692,11835
54380,2.615,17296,12414,19694,11836
54400,2.558,17301,12417,19696,11837
54420,2.569,17306,12420,19697,11838
54440,2.622,17311,12422,19699,11839
54460,2.626,17315,12425,19701,11840
54480,2.643,17320,12427,19703,11841
54500,2.657,17325,12430,19704,11841
54520,2.664,17329,12432,19706,11842
54540,2.692,17334,12434,19707,11843
54560,2.667,17338,12436,19708,11843
54580,2.611,17343,12438,19709,11843
54600,2.783,17347,12440,19709,11843
54620,3.25,17352,12442,19709,11844
54640,3.831,17356,12444,19708,11844
54660,3.996,17360,12445,19707,11844
54680,4,17364,12447,19706,11845
54700,3.993,17368,12449,19704,11846
54720,3.877,17372,12450,19702,11847
54740,3.574,17376,12452,19700,11848
54760,3.236,17380,12454,19699,11849
54780,3.052,17384,12456,19697,11851
54800,2.929,17388,12457,19695,11852
54820,2.873,17391,12459,19693,11853
54840,2.789,17395,12461,19692,11855
54860,2.728,17398,12463,19691,11856
54880,2.642,17401,12465,19690,11857
54900,2.691,17404,12467,19689,11857
54920,2.776,17407,12469,19688,11858
54940,2.791,17410,12471,19688,11858
54960,2.887,17412,12473,19688,11858
54980,2.908,17415,12474,19687,11858
55000,2.88,17417,12475,19687,11858
55020,2.811,17420,12476,19687,11858
55040,2.74,17422,12477,19687,11857
55060,2.66,17424,12478,19688,11857
55080,2.6,17427,12479,19688,11857
55100,2.6,17429,12480,19688,11858
55120,2.556,17432,12480,19689,11858
55140,2.566,17434,12481,19689,11858
55160,2.576,17437,12482,19689,11859
55180,2.572,17439,12483,19690,11860
55200,2.554,17442,12484,19690,11861
55220,2.573,17445,12485,19691,11862
55240,2.541,17447,12486,19691,11863
55260,2.556,17450,12487,19691,11863
55280,2.589,17452,12488,19690,11864
55300,2.742,17454,12489,19690,11864
55320,3.129,17456,12489,19689,11864
55340,3.63,17458,12490,19687,11864
55360,3.942,17460,12490,19686,11864
55380,3.97,17461,12490,19684,11864
55400,3.8,17462,12490,19683,11864
55420,3.554,17463,12490,19681,11864
55440,3.264,17463,12489,19679,11864
55460,3.036,17463,12489,19677,11864
55480,2.895,17462,12488,19675,11864
55500,2.769,17461,12487,19673,11863
55520,2.681,17460,12486,19672,11863
55540,2.612,17458,12485,19670,11863
55560,2.554,17455,12484,19669,11862
55580,2.607,17452,12482,19668,11862
55600,2.645,17449,12481,19667,11861
55620,2.72,17445,12479,19666,11859
55640,2.847,17441,12477,19666,11858
55660,2.882,17437,12475,19665,11856
55680,2.859,17433,12473,19664,11854
55700,2.838,17428,12471,19664,11853
55720,2.773,17424,12468,19663,11851
55740,2.686,17419,12465,19663,11849
55760,2.65,17415,12463,19663,11847
55780,2.629,17410,12460,19663,11846
55800,2.6,17406,12458,19663,11844
55820,2.583,17402,12455,19663,11843
55840,2.559,17398,12452,19663,11842
55860,2.554,17394,12450,19664,11841
55880,2.552,17390,12447,19664,11840
55900,2.549,17386,12445,19665,11840
55920,2.53,17381,12442,19665,11839
55940,2.51,17377,12440,19665,11838
55960,2.519,17373,12438,19665,11837
55980,2.618,17369,12435,19664,11836
56000,3.035,17364,12433,19663,11834
56020,3.562,17360,12431,19662,11833
56040,3.957,17356,12428,19661,11832
56060,3.991,17351,12426,19659,11831
56080,3.869,17347,12423,19657,11829
56100,3.645,17342,12421,19654,11828
56120,3.399,17338,12419,19652,11827
56140,3.165,17334,12416,19650,11826
56160,2.957,17330,12414,19647,11826
56180,2.838,17326,12411,19645,11825
56200,2.766,17322,12409,19643,11825
56220,2.685,17318,12407,19642,11825
56240,2.625,17314,12405,19640,11825
56260,2.622,17310,12403,19639,11824
56280,2.67,17307,12401,19639,11824
56300,2.735,17303,12399,19639,11824
56320,2.789,17300,12397,19639,11823
56340,2.832,17297,12396,19639,11823
56360,2.845,17294,12394,19640,11822
56380,2.829,17291,12393,19640,11821
56400,2.779,17288,12392,19641,11821
56420,2.734,17285,12390,19642,11820
56440,2.672,17282,12389,19644,11819
56460,2.653,17280,12387,19645,11818
56480,2.603,17277,12386,19646,11818
56500,2.559,17274,12384,19647,11817
56520,2.544,17271,12383,19649,11817
56540,2.541,17269,12381,19650,11816
56560,2.548,17267,12380,19651,11816
56580,2.556,17264,12378,19653,11816
56600,2.566,17262,12376,19654,11815
56620,2.589,17259,12374,19655,11815
56640,2.596,17257,12373,19656,11815
56660,2.576,17255,12371,19657,11815
56680,2.625,17253,12369,19658,11814
56700,2.973,17251,12368,19658,11814
56720,3.525,17249,12366,19658,11814
56740,3.968,17247,12365,19658,11814
56760,4.005,17245,12364,19658,11814
56780,3.989,17243,12363,19657,11814
56800,3.817,17241,12362,19656,11814
56820,3.561,17239,12361,19655,11814
56840,3.319,17238,12361,19654,11815
56860,3.101,17236,12361,19653,11816
56880,2.922,17234,12361,19652,11817
56900,2.821,17233,12361,19651,11818
56920,2.734,17232,12361,19651,11819
56940,2.689,17231,12361,19651,11820
56960,2.572,17230,12362,19651,11821
56980,2.566,17229,12362,19651,11822
57000,2.594,17229,12362,19652,11823
57020,2.646,17229,12362,19654,11824
57040,2.719,17229,12362,19655,11825
57060,2.747,17229,12363,19657,11825
57080,2.73,17229,12363,19658,11825
57100,2.728,17229,12363,19660,11825
57120,2.671,17230,12363,19661,11825
57140,2.607,17230,12363,19662,11824
57160,2.562,17231,12363,19664,11824
57180,2.556,17232,12363,19665,11824
57200,2.542,17232,12363,19666,11823
57220,2.5,17234,12363,19667,11823
57240,2.491,17235,12363,19667,11824
57260,2.433,17236,12364,19668,11824
57280,2.475,17238,12365,19669,11825
57300,2.502,17240,12365,19669,11825
57320,2.527,17243,12366,19670,11826
57340,2.523,17246,12368,19671,11827
57360,2.551,17249,12369,19671,11828
57380,2.503,17252,12370,19672,11829
57400,2.521,17256,12372,19672,11829
57420,2.878,17260,12374,19672,11830
57440,3.334,17264,12376,19672,11831
57460,3.754,17268,12378,19672,11831
57480,3.897,17273,12381,19671,11832
57500,3.819,17277,12383,19670,11832
57520,3.59,17281,12386,19669,11833
57540,3.329,17285,12389,19668,11834
57560,3.127,17290,12391,19667,11834
57580,2.937,17294,12394,19665,11835
57600,2.863,17298,12397,19664,11836
57620,2.803,17303,12400,19663,11837
57640,2.733,17307,12403,19661,11838
57660,2.657,17311,12405,19660,11839
57680,2.625,17316,12408,19660,11840
57700,2.605,17320,12411,19659,11841
57720,2.614,17324,12413,19659,11841
57740,2.689,17328,12416,19659,11842
57760,2.769,17332,12418,19659,11842
57780,2.751,17336,12420,19659,11842
57800,2.751,17340,12423,19660,11843
57820,2.727,17344,12425,19660,11843
57840,2.674,17347,12427,19661,11843
57860,2.626,17351,12429,19662,11843
57880,2.611,17354,12431,19662,11843
57900,2.552,17358,12434,19663,11843
57920,2.535,17361,12436,19664,11844
57940,2.517,17365,12438,19665,11844
57960,2.517,17369,12440,19665,11845
57980,2.521,17372,12442,19666,11846
58000,2.534,17376,12444,19667,11847
58020,2.514,17380,12446,19668,11847
58040,2.493,17384,12448,19669,11848
58060,2.535,17388,12450,19669,11848
58080,2.498,17392,12451,19669,11848
58100,2.589,17396,12452,19670,11848
58120,2.892,17400,12453,19669,11847
58140,3.343,17404,12455,19669,11847
58160,3.695,17408,12456,19668,11847
58180,3.809,17412,12457,19667,11846
58200,3.707,17415,12458,19666,11846
58220,3.48,17419,12459,19665,11846
58240,3.222,17422,12460,19663,11847
58260,3.008,17425,12461,19661,11847
58280,2.887,17428,12463,19660,11848
58300,2.812,17431,12464,19658,11849
58320,2.705,17434,12466,19656,11851
58340,2.661,17437,12467,19655,11852
58360,2.611,17439,12469,19653,11854
58380,2.554,17441,12470,19652,11855
58400,2.545,17442,12472,19651,11856
58420,2.638,17444,12473,19650,11857
58440,2.714,17444,12473,19650,11857
58460,2.793,17445,12474,19649,11858
58480,2.768,17445,12474,19649,11858
58500,2.763,17444,12474,19649,11857
58520,2.734,17443,12474,19649,11857
58540,2.677,17441,12473,19649,11856
58560,2.619,17439,12472,19649,11855
58580,2.555,17437,12471,19649,11854
58600,2.558,17435,12470,19649,11853
58620,2.51,17432,12469,19649,11852
58640,2.498,17429,12468,19650,11852
58660,2.51,17426,12466,19651,11851
58680,2.527,17422,12465,19651,11850
58700,2.489,17419,12464,19652,11850
58720,2.496,17415,12462,19653,11849
58740,2.519,17412,12461,19654,11848
58760,2.566,17408,12459,19654,11848
58780,2.657,17404,12457,19654,11847
58800,2.951,17400,12455,19655,11846
58820,3.418,17396,12453,19654,11846
58840,3.826,17392,12451,19654,11845
58860,3.943,17388,12449,19653,11845
58880,3.852,17384,12447,19652,11844
58900,3.627,17380,12444,19651,11844
58920,3.364,17375,12442,19650,11844
58940,3.119,17371,12439,19648,11844
58960,2.975,17366,12437,19647,11844
58980,2.866,17362,12435,19645,11844
59000,2.762,17358,12432,19644,11845
59020,2.699,17354,12430,19643,11845
59040,2.598,17350,12428,19642,11845
59060,2.61,17347,12425,19641,11845
59080,2.639,17343,12423,19641,11844
59100,2.686,17340,12421,19640,11844
59120,2.779,17336,12419,19640,11843
59140,2.815,17333,12417,19640,11842
59160,2.84,17329,12415,19641,11840
59180,2.804,17326,12412,19641,11839
59200,2.768,17323,12410,19642,11837
59220,2.705,17319,12408,19643,11836
59240,2.65,17316,12406,19644,11835
59260,2.558,17313,12404,19645,11834
59280,2.573,17309,12402,19646,11833
59300,2.559,17306,12400,19647,11832
59320,2.531,17303,12398,19648,11831
59340,2.542,17299,12397,19650,11831
59360,2.545,17296,12395,19651,11831
59380,2.584,17293,12393,19652,11831
59400,2.587,17290,12391,19654,11830
59420,2.607,17287,12389,19655,11830
59440,2.622,17284,12387,19656,11830
59460,2.577,17281,12386,19658,11830
59480,2.619,17279,12384,19658,11830
59500,2.8,17276,12382,19659,11830
59520,3.274,17273,12380,19659,11829
59540,3.774,17271,12378,19659,11829
59560,3.992,17269,12376,19659,11829
59580,3.991,17266,12375,19658,11828
59600,3.837,17264,12374,19657,11828
59620,3.611,17262,12372,19656,11828
59640,3.344,17259,12371,19655,11828
59660,3.172,17257,12370,19654,11828
59680,3.035,17255,12370,19653,11829
59700,2.943,17253,12369,19652,11829
59720,2.867,17251,12369,19652,11830
59740,2.789,17250,12369,19651,11831
59760,2.7,17248,12369,19651,11831
59780,2.675,17247,12369,19652,11832
59800,2.656,17246,12369,19653,11832
59820,2.713,17245,12369,19654,11833
59840,2.759,17244,12369,19655,11833
59860,2.79,17243,12369,19656,11833
59880,2.797,17242,12370,19658,11834
59900,2.81,17242,12370,19660,11833
59920,2.752,17241,12370,19661,11833
59940,2.707,17240,12369,19663,11833
59960,2.645,17239,12369,19665,11833
59980,2.614,17239,12369,19667,11833
60000,2.596,17238,12369,19668,11833
